# ================= DQRFIT RESULTS ================
# INPUT FILE: series/AB53.rad
# OUTPUT: LDETRENDED
# FILTER FUNCTION: f(t)
# f(t)=+line(t)+annual(t)+jumps(t)
# line(t)=+P 1+P 2*t
# annual(t)=+P 3*sin(2*pi*t+P 4)
# jumps(t)=+P 5*heav(t-2011.8333  )+P 6*heav(t-2012.2297  )+P 7*heav(t-2013.0137  )
# heav(t)=(t<0?0:1)
# TOTAL OBSERVATIONS MTOT= 3624
# INITIAL TIME INTERVAL= 2021.6619 - 2011.5729 = 10.0890
# TOTAL OBSERVATIONS AFTER PREFILTER M= 3540
# TIME-SPAN= 2021.6619 - 2011.5729 = 10.0890
# OBSERVATIONS: USED M=  3540 REJECTED MTOT-M=    84 %USED=   97.6821
# N=  7 PARAMETERS
# MAXSIG= 175.00000
# MAXRES=  68.71123
# SCALE FACTOR FOR LENGTHS: SCL=  10.00000
# SCALE FACTOR FOR SIGMAS: SCLSIG=   1.00000
# CHI^2=  20533.298 DOF=  3533 CHI^2/DOF=   5.81186
# RMS=     14.387 SDEV=     14.377 MEAN=    0.57586
#  P #       PARAMETER +-    SIGMA %error PARAMETER NAME
# P 1 =    -27922.72313 +-  199.497   0.71 YZERO                              
# P 2 =        13.87235 +-    0.099   0.71 SLOPE                              
# P 3 =        11.92892 +-    0.326   2.73 ANNUAL AMPLITUDE                   
# P 4 =         1.62810 +-    0.002   0.14 ANNUAL PHASE                       
# P 5 =        42.38045 +-    2.009   4.74 OFFSET 2011.8333                   
# P 6 =       -51.63763 +-    1.595   3.09 OFFSET 2012.2297                   
# P 7 =        -5.07623 +-    0.979  19.28 OFFSET 2013.0137                   
#       T            LDETRENDED       SIG_OBS
     2011.57289       -22.53764        13.44492
     2011.57563        -5.85062        13.60403
     2011.57837        -6.79160        13.50037
     2011.58110       -12.33958        13.66912
     2011.58384        -3.73756        14.40923
     2011.58658        -1.83354        13.59439
     2011.59030       -22.15017        26.71867
     2011.59206        -4.97250        13.31474
     2011.59479        -3.06748        13.84029
     2011.59753        -6.25847        13.27375
     2011.60027         0.30255        13.36777
     2011.60400        -7.27614        27.83486
     2011.60574        -7.02841        13.40394
     2011.60848        -2.67139        13.56305
     2011.61122        -1.97437        13.77520
     2011.61396        -1.65335        13.37018
     2011.61670        -2.79233        13.40152
     2011.61943        -5.41531        13.26170
     2011.62217        -0.23029        13.82823
     2011.62491        -5.42127        13.24723
     2011.62765        -7.69025        13.13875
     2011.63039         1.28777        13.22313
     2011.63312         3.08779        13.39188
     2011.63586         2.61281        13.26170
     2011.63860        -4.00617        13.16527
     2011.64223       -13.72755        25.33488
     2011.64407        -8.92013        13.41840
     2011.64681        -3.57811        13.19179
     2011.64955        -2.47209        13.76073
     2011.65229        -4.33707        13.41117
     2011.65503        -7.30005        13.63537
     2011.65776        -3.68403        13.30750
     2011.66050        -3.57602        13.90538
     2011.66324        -0.67000        13.46179
     2011.66598         2.99102        13.54135
     2011.66872        -4.18396        13.62814
     2011.67145        -0.90894        13.29304
     2011.67419        -4.41792        13.35090
     2011.67693         0.41510        13.11946
     2011.68056       -23.90527        25.54462
     2011.68240        -8.32386        13.42081
     2011.68514       -12.24484        13.31715
     2011.68788        -4.26782        13.66430
     2011.69062        -5.45780        13.93913
     2011.69336        -3.09478        13.32920
     2011.69609        -2.80976        13.31715
     2011.69973        -0.91114        25.94240
     2011.70185        -3.87168        15.00951
     2011.70431        -7.66870        13.19420
     2011.70731        -4.11737        15.14934
     2011.70978        -3.14266        13.72457
     2011.71262         0.43397        13.78002
     2011.71526        -6.36662        13.39188
     2011.71800        -1.10060        14.16574
     2011.72073        -4.59658        13.54135
     2011.72347        -6.19357        13.43528
     2011.72625        -5.78214        13.62573
     2011.72894        -4.65639        13.31715
     2011.73169         3.10949        13.25929
     2011.73442        -0.56549        13.66671
     2011.73716        -0.20747        13.42563
     2011.73990        -4.11745        13.31956
     2011.74264        -0.05743        13.20625
     2011.74538        -6.20741        13.82100
     2011.74924       -11.15008        34.80202
     2011.75085        -5.16237        13.84270
     2011.75359        -5.27635        13.83305
     2011.75633        -6.01733        14.00422
     2011.75906       -10.52331        13.67635
     2011.76180       -12.81529        13.37260
     2011.76454        -9.73527        13.67876
     2011.76728        -3.19625        13.53171
     2011.77002        -7.18723        13.65948
     2011.77275         1.92579        13.38947
     2011.77649        -9.37004        28.49783
     2011.77823        -6.00117        13.57992
     2011.78097        -7.16315        13.44733
     2011.78371        -5.45713        13.54135
     2011.78644        -0.56511        13.17732
     2011.78918        11.92590        13.47385
     2011.79192        -3.80808        13.22554
     2011.79466        -8.79406        13.76073
     2011.79739        -2.58104        13.39911
     2011.80013        -0.75302        13.30268
     2011.80287         3.24200        13.37983
     2011.80561         3.36502        13.36295
     2011.80835        -0.86296        13.47385
     2011.81108        -5.72494        13.40876
     2011.81382       -13.08292        15.60016
     2011.81656         8.67010        13.49072
     2011.81930        19.45612        13.36054
     2011.82203        22.97214        13.56064
     2011.82477        26.79216        13.85234
     2011.82751        22.99618        13.91743
     2011.83025        17.64020        13.77278
     2011.83388        19.47382        25.02148
     2011.83634         7.28467        19.17775
     2011.83846        20.78926        13.78002
     2011.84120        17.38928        13.87163
     2011.84394        11.59630        13.53894
     2011.84729        -7.58019        19.46946
     2011.84941        -7.16466        13.68359
     2011.85274         2.37324        18.80890
     2011.85489        13.36437        13.89815
     2011.85763        16.98539        13.81618
     2011.86036        22.68741        13.83546
     2011.86310        40.85543        14.06449
     2011.86584        47.71645        14.05967
     2011.86858        44.37147        14.23807
     2011.87405        46.95951        14.07413
     2011.87953        40.70755        14.26699
     2011.88227        42.30757        13.80412
     2011.88583        31.92412        23.08804
     2011.89322        36.77565        14.28146
     2011.89960        52.86709        24.30307
     2011.90143        54.29371        13.80412
     2011.90417        62.12073        13.86198
     2011.90691        58.82175        13.85234
     2011.90965        60.21277        13.93190
     2011.91238        47.99779        14.42852
     2011.91512        44.40681        14.06449
     2011.91786        37.18482        14.22842
     2011.92060        34.59484        13.67876
     2011.92334        45.95886        14.56593
     2011.92607        37.92388        14.19226
     2011.92969        32.95270        27.11886
     2011.93155        29.01492        14.82630
     2011.93429        16.88794        14.60209
     2011.93702        24.79696        14.39477
     2011.94084        32.48608        31.87292
     2011.94250        20.95800        14.71781
     2011.94626        12.37878        27.92888
     2011.94798         9.68304        15.05291
     2011.95071         9.49406        14.32003
     2011.95346        11.42501        14.69370
     2011.95619        17.88210        14.52977
     2011.95893        24.26112        14.05244
     2011.96167        23.41314        13.91020
     2011.96440        46.47616        14.49120
     2011.96714        49.58618        14.00181
     2011.96988        43.58920        13.73662
     2011.97262        52.89922        14.36343
     2011.97535        38.01824        15.10112
     2011.97809        18.21426        14.55870
     2011.98083        34.83527        14.43816
     2011.98357        21.07129        15.01916
     2011.98631        29.43531        15.54230
     2011.98904        57.81733        15.12764
     2011.99178        44.35635        15.08666
     2011.99452        57.02437        15.00951
     2011.99726        45.19339        15.19756
     2012.00273        35.14943        15.82677
     2012.00547        44.86245        15.78096
     2012.00821        79.35547        14.93719
     2012.01095        41.79649        15.52542
     2012.01368        48.80451        15.11559
     2012.01642        68.25453        15.45551
     2012.01916        71.83455        14.91308
     2012.02190        64.78757        15.93043
     2012.02464        49.03259        16.54277
     2012.02737        66.60761        16.34027
     2012.03011        56.63363        16.31857
     2012.03285        63.50365        15.69418
     2012.03559        71.85767        15.00951
     2012.03833        61.77769        15.93525
     2012.04106        72.78171        15.37595
     2012.04380        58.15173        16.24383
     2012.04654        68.69774        15.34461
     2012.04928        69.40676        15.46756
     2012.05201        61.08378        15.30122
     2012.05475        86.49180        15.13729
     2012.05749        80.66982        15.72793
     2012.06122        68.71413        31.24129
     2012.06297        94.12186        15.53265
     2012.06570        83.63788        15.54712
     2012.06844        63.40390        15.41211
     2012.07118        68.39792        15.30122
     2012.07392        73.94494        15.80025
     2012.07666        70.50696        15.50372
     2012.07939        70.85298        15.55435
     2012.08213        82.71100        16.64643
     2012.08487        86.27802        15.80989
     2012.08761       104.03304        16.57652
     2012.09034       106.82606        16.06061
     2012.09308        82.01908        15.97624
     2012.09582        73.64210        15.48926
     2012.09940        75.69038        26.83439
     2012.10130        65.78014        15.94731
     2012.10403        75.44616        15.33256
     2012.10677        67.20518        15.06014
     2012.10951        51.36519        14.94201
     2012.11225        32.72521        15.07943
     2012.11772        30.05625        14.83353
     2012.12046        27.09327        15.31327
     2012.13141        24.19635        14.75638
     2012.13415        46.87437        15.06737
     2012.13689        69.69739        15.14934
     2012.13963        73.54141        15.62667
     2012.14290        86.20704        19.90340
     2012.14510        63.16345        15.04809
     2012.14784        61.40847        14.87451
     2012.15058        65.38949        14.94925
     2012.15331        66.97851        14.85281
     2012.15605        51.90453        15.24336
     2012.15879        58.58555        15.25300
     2012.16153        68.18257        14.87210
     2012.16427        52.86159        15.87016
     2012.16700        51.00961        15.45310
     2012.16974        38.17263        14.94683
     2012.17248        33.75265        14.83594
     2012.17522        40.06166        14.87451
     2012.17796        47.29768        15.05773
     2012.18069        58.35970        16.99118
     2012.18343        41.82772        15.16622
     2012.18617        73.46974        18.63292
     2012.18891        78.99376        14.87692
     2012.19164        93.83778        15.07461
     2012.19540       107.74362        32.63231
     2012.19813        97.32684        35.36855
     2012.19986       103.20484        15.05532
     2012.20260        90.95886        15.12282
     2012.20533        78.72288        14.64308
     2012.20807        76.55090        14.95648
     2012.21081        71.43092        14.92996
     2012.21355        72.91994        14.69852
     2012.21629        78.09796        15.39765
     2012.21902        76.09798        14.73710
     2012.22176        72.96900        15.12041
     2012.22450        52.71802        15.16863
     2012.22724        59.34604        15.16622
     2012.24188         8.38788        27.21770
     2012.24640        10.44917        14.58040
     2012.24914        21.01919        14.47673
     2012.25188        16.32721        14.40200
     2012.26557        18.92031        14.84799
     2012.26830        16.44733        14.27423
     2012.27104        -5.35565        14.30798
     2012.27378       -15.09863        13.95600
     2012.27652       -39.24361        13.37983
     2012.28019       -31.33258        23.36528
     2012.28199       -39.21957        13.00375
     2012.28473       -29.89155        12.96999
     2012.28747       -25.45553        12.87839
     2012.29059       -23.66985        14.86487
     2012.29295       -20.90249        13.10018
     2012.29568       -29.37247        13.14598
     2012.29842       -26.71345        12.93865
     2012.30116       -24.98443        12.91214
     2012.30390       -12.22842        12.97482
     2012.30663       -33.86440        12.84222
     2012.30937       -29.23038        13.04232
     2012.31211       -28.27436        14.26458
     2012.31485       -24.94734        13.33402
     2012.31759       -28.99932        12.72651
     2012.32032       -25.21230        13.21107
     2012.32306       -24.16128        12.76508
     2012.32580       -16.30826        12.78436
     2012.32854        -4.06424        13.03750
     2012.33128       -26.28022        13.03750
     2012.33483       -22.69254        19.57071
     2012.33675       -25.87118        12.77231
     2012.33949       -25.75816        12.84946
     2012.34223       -22.86014        12.81088
     2012.34529       -17.45867        14.38030
     2012.34770       -24.69610        13.07125
     2012.35044       -20.73408        13.15563
     2012.35318        -6.03906        12.87597
     2012.35592       -25.14804        12.89526
     2012.35865        -9.27202        12.89044
     2012.36139         2.03400        13.38224
     2012.36413        -2.10698        14.24530
     2012.36687         0.00903        14.29592
     2012.36961       -27.25895        13.18214
     2012.37234       -29.61893        12.91455
     2012.37629       -40.58065        37.59611
     2012.37782       -31.04389        12.91455
     2012.38056       -29.72087        13.15321
     2012.38329       -29.02485        13.16045
     2012.38603       -26.12483        13.08812
     2012.38877       -24.20681        13.35572
     2012.39151       -27.84979        13.04473
     2012.39425       -30.48877        13.07607
     2012.39698       -29.93675        13.12911
     2012.39972       -23.66273        12.94107
     2012.40246       -25.98871        12.66865
     2012.40520       -26.12969        12.64454
     2012.40794       -25.40167        12.94348
     2012.41067       -24.86265        12.73374
     2012.41341       -27.30363        12.86392
     2012.41615       -24.27361        12.72168
     2012.41928       -23.38107        14.79496
     2012.42162       -28.53957        12.77954
     2012.42456       -26.28726        13.68841
     2012.42710       -29.99553        12.98928
     2012.42984       -23.73352        12.83740
     2012.43258       -29.17350        12.89285
     2012.43531       -32.11848        12.72651
     2012.43805       -29.46146        12.95794
     2012.44079       -33.57344        12.81812
     2012.44353       -30.08442        13.01098
     2012.44626       -27.11440        12.99651
     2012.44900       -26.81038        12.87839
     2012.45174       -28.54936        12.73374
     2012.45448       -30.16634        12.91937
     2012.45722       -22.12432        13.00134
     2012.45995       -27.88530        13.79207
     2012.46269       -26.19728        12.86392
     2012.46543       -31.14826        13.14357
     2012.46817       -28.05224        12.78678
     2012.47091       -29.18122        12.76749
     2012.47364       -24.78120        12.79642
     2012.47638       -28.99618        12.85187
     2012.47912       -22.21016        12.68793
     2012.48186       -27.16514        12.74820
     2012.48459       -22.79312        12.97482
     2012.48733       -30.30010        12.94107
     2012.49007       -21.86008        12.85187
     2012.49281       -25.63606        12.83017
     2012.49555       -28.22405        12.86151
     2012.49830       -30.50322        12.81088
     2012.50102       -23.81501        12.87597
     2012.50376       -25.88599        13.47385
     2012.50650       -24.50997        12.73615
     2012.51032       -32.96005        32.35990
     2012.51197       -21.22793        13.38947
     2012.51471       -25.97991        12.77472
     2012.51745       -25.33589        12.90249
     2012.52019       -23.92987        13.18455
     2012.52292       -29.06185        12.83981
     2012.52566       -26.39383        12.75302
     2012.52840       -23.31681        12.94830
     2012.53114       -24.81479        12.86633
     2012.53388       -25.68477        13.01098
     2012.53661       -25.72575        16.17633
     2012.53935       -20.18973        13.71493
     2012.54209       -18.70171        13.21831
     2012.54483       -16.63069        12.82294
     2012.54757       -20.87767        12.93142
     2012.55030       -19.08265        12.91696
     2012.55304       -18.19063        12.85187
     2012.55578       -19.66861        12.77231
     2012.55852       -19.42360        13.14598
     2012.56125       -14.29358        12.77713
     2012.56399       -19.39956        12.91214
     2012.56673       -17.25654        12.96035
     2012.56947       -13.78852        12.83258
     2012.57266       -16.78883        15.80507
     2012.57494       -16.47648        12.84946
     2012.57768       -16.29846        12.95312
     2012.58042       -15.45044        12.91937
     2012.58316       -19.29442        12.84463
     2012.58590       -15.69640        12.87356
     2012.58863       -10.93038        12.80365
     2012.59137       -15.58936        13.18697
     2012.59411       -13.52134        12.83981
     2012.59685       -10.33332        13.07125
     2012.60049       -16.73383        23.94386
     2012.60232       -12.03728        13.40152
     2012.60506       -23.68126        12.79401
     2012.60780       -19.42824        12.85428
     2012.61054       -14.48222        12.81329
     2012.61327       -15.88020        12.79160
     2012.61729       -15.25586        60.94933
     2012.61875       -15.44216        12.99651
     2012.62237       -10.73834        23.02054
     2012.62515       -15.76092        30.91584
     2012.62696       -13.15011        13.17732
     2012.62970       -17.80809        13.35090
     2012.63244       -12.40607        13.04714
     2012.63518       -17.76105        12.84705
     2012.63791        -9.42703        12.85910
     2012.64065       -10.34001        12.86874
     2012.64339        -9.74799        12.80365
     2012.64613       -12.80397        12.80847
     2012.64887       -13.50195        12.96999
     2012.65160       -11.60893        12.89044
     2012.65434       -10.90091        12.92419
     2012.65708       -11.89489        13.32438
     2012.65982       -13.54787        13.21589
     2012.66256       -14.09585        12.76990
     2012.66529       -11.44783        12.72410
     2012.66803       -13.80081        13.05678
     2012.67077        -7.96479        13.08330
     2012.67392       -18.78644        17.86388
     2012.67624       -15.15175        13.05196
     2012.67898       -11.69073        13.54617
     2012.68172       -16.50171        13.05196
     2012.68521       -19.55018        21.03887
     2012.68720       -15.01768        13.08089
     2012.68993       -15.55566        13.03026
     2012.69347       -12.88871        21.53067
     2012.69541       -15.68562        13.07848
     2012.69815       -18.40160        13.23518
     2012.70089       -25.19558        13.33643
     2012.70396       -18.05824        14.96612
     2012.70636       -16.61854        12.82776
     2012.70910       -20.64752        12.91455
     2012.71184       -16.10450        13.24482
     2012.71457       -13.34948        12.92660
     2012.71731       -18.47446        13.38706
     2012.72005       -19.19344        12.78919
     2012.72279       -12.58142        13.11464
     2012.72553       -16.97940        12.89526
     2012.72826       -10.56738        13.64983
     2012.73100       -17.89736        13.12911
     2012.73374       -14.76634        13.14598
     2012.73648       -11.25532        13.03750
     2012.74033       -14.76873        32.16462
     2012.74195       -19.81228        12.95794
     2012.74469       -18.88026        12.99410
     2012.74743       -15.67624        13.08812
     2012.75017       -15.69022        14.27664
     2012.75290       -13.35521        13.09777
     2012.75583       -19.86982        14.10547
     2012.75838       -17.87417        13.01098
     2012.76112       -18.94115        12.94830
     2012.76386       -15.35813        12.95071
     2012.76659       -16.00511        12.96999
     2012.76933       -14.17209        15.11318
     2012.77207       -19.72107        14.43575
     2012.77481       -12.58905        13.05196
     2012.77754       -15.83303        13.02544
     2012.78028        -7.03701        13.22795
     2012.78302        -8.80499        14.74433
     2012.78576       -13.57297        13.33884
     2012.78850       -12.17795        13.00375
     2012.79214       -15.44546        24.65022
     2012.79397        -7.93091        13.00375
     2012.79671         0.78311        12.93383
     2012.79946         3.53793        13.08330
     2012.80219        -0.10285        13.09536
     2012.80492        -2.38683        13.01098
     2012.80766       -10.54481        13.15080
     2012.81148       -19.14883        28.27604
     2012.81314       -15.48477        12.89767
     2012.81587       -19.42476        12.98928
     2012.81861       -18.57074        13.15321
     2012.82135       -13.52072        13.11946
     2012.82409       -16.70070        13.03026
     2012.82683       -12.04668        13.02544
     2012.82956       -13.06266        13.18455
     2012.83230       -11.56464        13.02785
     2012.83504       -15.60162        13.83305
     2012.83778       -12.15160        13.13393
     2012.84148         6.63804        23.82333
     2012.84325         7.75244        13.34849
     2012.84599       -14.49654        13.15563
     2012.84873        -3.84552        13.11946
     2012.85147         6.61950        13.19902
     2012.85420         6.10552        13.20384
     2012.85694         1.49254        13.15804
     2012.85968        -2.18944        13.19661
     2012.86242        -2.19242        13.09294
     2012.86516         6.15060        13.23759
     2012.86789        -2.96738        13.84511
     2012.87063        -7.95436        15.70623
     2012.87337       -10.34034        13.60403
     2012.87660       -10.57318        17.50708
     2012.87885         5.78370        13.39429
     2012.88158         6.05471        13.57751
     2012.88432         4.55573        13.61126
     2012.88706         7.26575        14.32726
     2012.88980        10.70277        13.87645
     2012.89253         3.94479        13.38224
     2012.89527         7.56281        13.34608
     2012.89801        13.23983        13.73903
     2012.90075        14.77485        14.04520
     2012.90349         4.79687        14.06931
     2012.90622        16.14089        14.03797
     2012.90896         4.87491        13.70287
     2012.91170         7.05393        13.49554
     2012.91444         8.10395        13.71252
     2012.91718         7.52697        13.56546
     2012.91991        15.05599        13.57992
     2012.92265         9.13501        13.83064
     2012.92643        26.47265        30.11546
     2012.92813        19.97005        13.50760
     2012.93086        29.17807        13.93190
     2012.93360        34.99909        13.86922
     2012.93634        34.20211        13.44492
     2012.93908        45.37713        13.77761
     2012.94182        30.89815        13.86439
     2012.94455        40.34816        13.74627
     2012.94729        27.56818        13.62091
     2012.95003        27.42520        13.77278
     2012.95277        26.61222        13.48590
     2012.95551        26.37624        13.72216
     2012.95824        29.72426        13.72698
     2012.96098        28.47828        13.95359
     2012.96372        29.55130        14.02351
     2012.96646        28.71232        13.58233
     2012.96917        26.76674        13.78002
     2012.97193        26.07736        13.62091
     2012.97467        23.69738        13.28099
     2012.97804        15.68456        19.16329
     2012.98015         5.46942        13.20384
     2012.98321         3.41395        15.80507
     2012.98562         2.76146        13.26652
     2012.98836         7.16248        13.41840
     2012.99110        -5.42450        13.24241
     2012.99384        -2.79748        13.49554
     2012.99657        13.95054        13.44010
     2012.99931        22.22456        13.71252
     2013.00205        23.37758        14.27664
     2013.00479        25.35660        13.96324
     2013.00752        28.71661        14.12958
     2013.01026        32.68163        13.83064
     2013.01300        35.79565        13.97288
     2013.01574        33.51167        13.88368
     2013.01848        36.91669        14.30075
     2013.02121        38.13071        14.65031
     2013.02395        25.13373        14.03797
     2013.02669        21.83475        14.39718
     2013.02979        16.45976        16.89716
     2013.03216        23.69179        14.06931
     2013.03490        23.82481        14.10306
     2013.03764         1.35883        13.82823
     2013.05407       -40.65305        13.95841
     2013.05789       -23.34707        32.70705
     2013.05977       -28.73511        16.01722
     2013.06228       -25.88099        13.41840
     2013.06502       -14.57197        13.65225
     2013.06776         8.70905        13.67635
     2013.07049        12.24107        14.71299
     2013.07323        11.44308        14.87210
     2013.07597        15.55910        14.46468
     2013.07871         9.69112        14.25012
     2013.08145        19.88514        14.38271
     2013.08418        -1.80384        14.29592
     2013.08692        -5.16482        14.15128
     2013.08966         3.47020        14.19467
     2013.09240        14.20922        14.33932
     2013.09514        19.90924        14.41405
     2013.09787        12.12926        15.22166
     2013.10061        12.00028        15.00228
     2013.10335         2.09330        14.47432
     2013.10609        10.83232        13.97288
     2013.10882        30.03034        14.67442
     2013.11156        -9.70464        14.72745
     2013.11430        13.84638        14.77326
     2013.11704        16.19040        14.95407
     2013.11978        12.81135        14.69852
     2013.12251        15.03444        14.35137
     2013.12525        14.19146        14.15128
     2013.12799       -18.58452        13.68600
     2013.13073       -15.81650        13.61849
     2013.13347         4.30652        13.72457
     2013.13620        12.13553        13.81136
     2013.13894        21.07755        13.61126
     2013.14168        23.66457        13.75109
     2013.14442        21.06759        14.25253
     2013.14715        15.60861        13.84511
     2013.14989         8.88663        13.74868
     2013.15263        10.32465        13.46420
     2013.15537         0.82967        13.89332
     2013.15811        -5.47831        13.93672
     2013.16084        -5.31529        14.36584
     2013.16358       -12.56827        14.51289
     2013.16632       -12.61825        14.73710
     2013.16906         9.43777        14.68888
     2013.17180       -13.91821        14.85040
     2013.17453       -10.86519        14.55870
     2013.17777       -10.39409        18.16040
     2013.18001        -4.14115        14.96371
     2013.18275         2.86387        14.21637
     2013.18548         2.54689        14.15851
     2013.18822       -11.01409        14.62138
     2013.19096       -12.63107        14.28869
     2013.19370       -17.23505        14.33450
     2013.19644       -25.20503        14.21637
     2013.19917       -14.00901        13.93431
     2013.20191       -13.98800        14.18744
     2013.20465       -13.42998        13.99458
     2013.20739        -6.78296        15.72552
     2013.21012        -5.97587        14.02833
     2013.21385        -3.93263        26.58608
     2013.21560        13.89310        14.27905
     2013.21834        13.33212        13.92949
     2013.22111         6.06075        13.98975
     2013.22381         6.89116        13.93913
     2013.22655        11.06618        13.69082
     2013.22929        16.66420        14.10306
     2013.23302         9.23650        26.80787
     2013.23477        16.89524        13.92707
     2013.23750        11.94326        14.08136
     2013.24024         3.92528        14.13681
     2013.24298        11.29230        14.38753
     2013.24572        13.88132        14.42852
     2013.24846         8.68534        14.26699
     2013.25119         3.27036        14.50566
     2013.25430         2.72330        16.72840
     2013.25667         2.21040        14.58763
     2013.25941        14.49242        14.36101
     2013.26214        17.32144        14.51772
     2013.26488        -8.71755        13.83064
     2013.26762       -15.21153        13.74868
     2013.27036       -17.94951        14.14404
     2013.27310       -23.23949        14.22119
     2013.27583       -20.96747        14.40441
     2013.27857       -14.37445        14.39959
     2013.28131       -18.34343        14.11270
     2013.28405       -22.45541        13.71010
     2013.28679       -17.59439        13.63537
     2013.28952       -31.01137        13.79930
     2013.29226       -22.05035        13.94395
     2013.29500       -13.46133        13.75591
     2013.29774       -19.40831        13.77761
     2013.30047       -27.14929        13.69323
     2013.30372       -28.81726        16.81519
     2013.30595       -33.71925        13.83788
     2013.30869       -36.00623        13.91261
     2013.31143       -38.66021        13.63296
     2013.31416       -20.86219        13.19179
     2013.31690       -24.48417        13.34126
     2013.31964       -33.25115        13.28340
     2013.32267       -38.43616        14.53700
     2013.32512       -31.95611        13.29304
     2013.32806       -41.97793        14.46950
     2013.33059       -29.91908        13.79207
     2013.33453       -29.90167        35.17328
     2013.33607       -33.66804        13.18697
     2013.33880       -32.91002        13.31715
     2013.34154       -27.52400        13.08330
     2013.34428       -30.58898        13.22072
     2013.34702       -30.10096        13.26411
     2013.34976       -30.63594        13.34608
     2013.35249       -34.77692        13.15804
     2013.35523       -32.05190        13.37742
     2013.35797       -32.99088        13.22072
     2013.36071       -26.78986        13.25206
     2013.36344       -23.81984        13.14598
     2013.36618       -28.12282        13.49313
     2013.36892       -27.40980        13.12428
     2013.37166       -32.61378        13.10018
     2013.37440       -29.77876        13.21107
     2013.37713       -32.24874        13.62814
     2013.38008       -28.45662        14.06208
     2013.38261       -29.97670        13.12187
     2013.38535       -30.91068        13.52447
     2013.38809       -26.21166        13.31474
     2013.39082       -28.72364        13.20866
     2013.39356       -22.10663        13.37983
     2013.39630       -26.05761        13.38224
     2013.39904       -23.63259        13.35813
     2013.40177       -27.68257        13.22554
     2013.40451       -26.54455        13.57751
     2013.40725       -20.59753        13.25929
     2013.40999       -23.44751        13.16527
     2013.41273       -23.81349        13.14598
     2013.41546       -27.26647        15.02157
     2013.41820       -28.01145        13.31715
     2013.42094       -22.00643        13.16527
     2013.42368       -31.21541        13.55581
     2013.42642       -27.88639        13.26170
     2013.42915       -21.57737        13.22554
     2013.43189       -26.95235        13.88609
     2013.43463       -23.01533        13.07366
     2013.43733       -29.01385        13.30509
     2013.44287       -19.33360        13.88368
     2013.44558       -24.96025        13.43286
     2013.44936       -31.58467        26.61742
     2013.45106       -22.95821        13.04714
     2013.45379       -19.49019        13.17732
     2013.45653       -21.79918        13.14357
     2013.45927       -19.51916        13.26652
     2013.46201       -20.85814        13.64019
     2013.46475       -20.12112        13.23036
     2013.46748       -20.91410        13.02544
     2013.47022       -20.38608        13.27857
     2013.47296       -21.23706        13.01580
     2013.47570       -18.45804        13.45215
     2013.47843       -15.70402        13.01098
     2013.48117       -13.85900        13.29063
     2013.48391       -14.06298        13.03991
     2013.48792       -43.26257       495.56216
     2013.48939       -17.80394        13.25688
     2013.49212       -22.09192        15.56399
     2013.49517        -9.10312        14.68647
     2013.49760       -11.94688        13.10018
     2013.50034       -16.27386        13.37983
     2013.50308       -15.76984        13.16527
     2013.50581       -16.09982        13.06402
     2013.50855       -17.78480        13.01339
     2013.51129       -19.44578        13.94636
     2013.51403       -15.73276        13.18214
     2013.51676       -15.38574        13.14839
     2013.51950       -15.41372        13.40394
     2013.52224       -16.23171        13.10018
     2013.52594       -18.73201        25.80981
     2013.52772       -16.88367        12.93383
     2013.53045       -18.88065        13.07607
     2013.53319       -17.86963        13.16768
     2013.53593       -16.03961        13.21348
     2013.53867       -16.00359        13.32679
     2013.54141       -15.13057        12.97241
     2013.54414       -10.93755        12.96999
     2013.54727       -18.43587        15.28675
     2013.54962       -15.80751        12.96035
     2013.55236       -15.76849        13.12428
     2013.55509       -17.01547        12.91455
     2013.55783       -13.05445        13.36536
     2013.56059       -15.79869        13.49072
     2013.56331       -11.82541        13.42081
     2013.56605       -17.19639        13.01821
     2013.56878       -15.59637        13.13634
     2013.57152       -10.43135        12.92901
     2013.57426       -10.27533        12.87356
     2013.57700       -13.47631        12.99892
     2013.58102       -19.72310        62.69474
     2013.58247        -9.89827        13.57510
     2013.58521       -15.38125        13.12670
     2013.58795       -14.24924        12.97723
     2013.59069       -14.63522        13.16286
     2013.59342        -9.71620        13.16045
     2013.59708       -15.63990        27.04172
     2013.60016       -18.15463        53.94361
     2013.60164        -4.73514        13.06160
     2013.60438        -9.29812        13.05678
     2013.60711       -14.69410        12.95553
     2013.60985        -7.04808        12.90008
     2013.61259       -17.19406        13.01098
     2013.61533        -9.85004        13.55581
     2013.61807       -11.10502        13.11464
     2013.62080       -10.03500        13.04232
     2013.62354       -10.85398        12.87839
     2013.62628       -10.76296        13.13875
     2013.62902       -17.10294        13.27375
     2013.63175        -8.53292        12.92901
     2013.63449        -7.84790        13.73180
     2013.63723       -10.08988        12.94107
     2013.64071        -6.52122        19.99983
     2013.64271        -5.96884        13.03026
     2013.64544        -3.33482        13.21348
     2013.64818        -8.46680        13.03750
     2013.65092       -11.49179        12.93865
     2013.65366       -11.83077        13.41117
     2013.65639        -7.29375        13.36295
     2013.65913        -7.75173        13.37742
     2013.66187       -13.07671        12.99651
     2013.66461       -13.85975        13.11705
     2013.66735        -9.04767        13.01821
     2013.67008        -9.12465        12.91937
     2013.67282        -3.53463        13.55099
     2013.67556        -6.93561        13.29786
     2013.67830       -10.87959        12.96758
     2013.68104        -5.59657        12.95071
     2013.68377        -4.39155        13.25447
     2013.68651         0.02347        14.05967
     2013.68925       -13.48051        12.96517
     2013.69275       -12.48304        21.95256
     2013.69472       -12.19547        13.09777
     2013.69746       -12.56545        13.11223
     2013.70020        -9.76343        12.96999
     2013.70369        -7.22583        20.86048
     2013.70568        -3.30539        12.86633
     2013.70841        -8.90737        13.07125
     2013.71115        -9.33735        13.05919
     2013.71389       -13.77034        13.09536
     2013.71663        -9.69132        12.96276
     2013.71937        -1.79530        12.95071
     2013.72210        -7.05928        13.04955
     2013.72484        -9.64526        12.96517
     2013.72758        -9.32424        13.14839
     2013.73124       -19.72108        27.96263
     2013.73305       -12.93520        12.94348
     2013.73579        -7.40818        13.21348
     2013.73853       -11.77416        12.86874
     2013.74127        -8.01514        13.10259
     2013.74401         1.42088        13.16286
     2013.74674        -3.67110        12.93383
     2013.74948        -6.42708        13.14839
     2013.75222        -9.63706        13.42081
     2013.75496       -16.20804        12.96035
     2013.75770       -15.63002        13.08571
     2013.76043       -12.51200        13.11464
     2013.76317       -10.68898        13.30750
     2013.76591        -5.15296        12.99169
     2013.76865       -10.70894        13.08089
     2013.77194       -24.09564        18.16281
     2013.77412        -6.37190        12.95794
     2013.77686       -11.32388        12.86151
     2013.77960       -11.11587        13.05196
     2013.78234       -13.38485        12.97241
     2013.78507       -15.01683        13.44974
     2013.78880       -13.17052        25.39515
     2013.79055        -6.57779        12.84222
     2013.79329       -11.72477        13.14839
     2013.79603        -9.68775        13.12428
     2013.79876        -9.91273        12.97723
     2013.80150        -5.78971        13.22072
     2013.80481       -12.06967        17.56012
     2013.80696       -10.31747        13.18697
     2013.80971        -7.88565        13.00134
     2013.81245        -8.44163        13.15321
     2013.81519       -13.93661        12.88803
     2013.81793       -12.62259        13.04955
     2013.82067       -14.21757        12.91937
     2013.82340       -11.42655        12.95312
     2013.82614        -5.77753        13.38465
     2013.82888        -8.17351        13.53171
     2013.83162        -9.95649        12.96758
     2013.83533        -5.70806        28.10246
     2013.83709       -12.68445        13.28340
     2013.83983        -9.87343        13.38706
     2013.84257       -10.05142        13.22313
     2013.84531        -1.52540        13.39911
     2013.84858        -8.01376        17.48780
     2013.85077       -13.38722        13.50760
     2013.85352        -4.98634        13.09536
     2013.85626         4.81768        14.05485
     2013.85900       -11.40830        13.03509
     2013.86173       -11.02328        13.54617
     2013.86447       -14.04226        13.23277
     2013.86721       -15.55724        12.93142
     2013.86995       -13.01922        13.06160
     2013.87269        -0.64320        13.02303
     2013.87542        -2.94618        13.38465
     2013.87816        -3.85016        13.11946
     2013.88214        -9.74035        48.19631
     2013.88362        -7.98592        13.98493
     2013.88637        -8.99910        12.99651
     2013.88993         1.27258        20.71583
     2013.89185       -14.19806        13.02544
     2013.89459         8.71096        13.54376
     2013.89733         7.67498        13.43045
     2013.90006         3.33600        13.76073
     2013.90280       -14.50798        13.52930
     2013.90554        -7.19996        12.96035
     2013.90828       -16.06395        12.94830
     2013.91102         0.73707        13.00616
     2013.91375        -4.68691        13.29063
     2013.91649         0.39011        13.03026
     2013.91923        -3.33587        13.01821
     2013.92197       -13.66285        13.39670
     2013.92470       -19.82983        13.04473
     2013.92744       -17.80581        13.43769
     2013.93018       -22.20179        12.91214
     2013.93292       -22.06877        12.88562
     2013.93566       -17.16275        13.17491
     2013.93839        -7.20073        13.09777
     2013.94113        -4.20671        13.34849
     2013.94462        21.95696        19.89134
     2013.94661        25.35433        13.52930
     2013.94935        39.54335        13.79930
     2013.95208         1.73437        13.30268
     2013.95482       -12.94761        12.98446
     2013.95756       -12.02759        13.10018
     2013.96028        -7.05631        13.74386
     2013.96303        -5.17555        12.96276
     2013.96577        -2.96553        13.09294
     2013.96851         9.92249        13.28340
     2013.97125        10.73650        13.67876
     2013.97672        40.20054        14.79254
     2013.97946        36.38256        15.12282
     2013.98220        34.94858        15.10595
     2013.98494        -3.26340        13.59680
     2013.98767       -18.13038        13.56787
     2013.99041       -15.89836        13.17009
     2013.99315       -11.83434        13.51001
     2013.99589        -2.87532        13.41599
     2013.99863        -3.30430        13.73903
     2014.00410        -9.29326        13.98252
     2014.00684        -2.23724        14.08860
     2014.00958         6.00178        13.92466
     2014.01232         0.84980        14.13440
     2014.01505       -13.44818        15.16380
     2014.01779       -19.79316        14.88174
     2014.02053        12.40786        14.58522
     2014.02327        39.92788        14.60933
     2014.02874        38.08892        14.36825
     2014.03422        37.15496        14.62379
     2014.03696         6.62497        14.17780
     2014.03969       -16.01101        13.29304
     2014.04243       -23.49499        13.65466
     2014.04517       -12.20497        13.52930
     2014.04849       -12.17106        17.86629
     2014.05065       -20.11693        12.92178
     2014.05339       -16.33197        12.97723
     2014.05612       -10.92389        13.83305
     2014.05886       -23.88887        13.02785
     2014.06160       -22.77685        13.00134
     2014.06433       -15.37383        13.38947
     2014.06707       -18.45581        13.30750
     2014.06981       -15.41779        13.13152
     2014.07306       -15.01889        16.87305
     2014.07529       -19.64675        12.99892
     2014.07802       -17.00473        12.91696
     2014.08076       -17.77571        12.89526
     2014.08350       -16.26769        12.96999
     2014.08624       -22.67767        13.28340
     2014.08992       -24.59378        26.60295
     2014.09171       -18.70063        13.61126
     2014.09445       -25.70961        13.22072
     2014.09719       -27.86459        13.31956
     2014.09993       -21.05058        13.09294
     2014.10266       -21.04556        13.37742
     2014.10540       -20.17854        13.10259
     2014.10814       -22.78552        13.11464
     2014.11088       -20.79050        13.25447
     2014.11362       -16.17448        13.24723
     2014.11635       -10.95546        13.01339
     2014.11909       -14.94344        12.99169
     2014.12183         1.67358        13.26170
     2014.12457         8.57360        13.28581
     2014.12731        17.00362        13.24723
     2014.13004        14.23464        13.31474
     2014.13278        10.72866        14.25976
     2014.13552         6.50268        15.36390
     2014.13826         5.91270        14.66236
     2014.14099        -0.68528        13.57751
     2014.14373        -4.87326        13.47144
     2014.14647         6.10676        13.48831
     2014.14921        -2.50222        13.10018
     2014.15195       -10.14020        13.27375
     2014.15468       -17.58718        13.46420
     2014.15742       -19.27716        13.74868
     2014.16058       -16.52501        16.95501
     2014.16290       -26.18713        13.39188
     2014.16564       -23.90011        13.07125
     2014.16837       -21.10009        13.53894
     2014.17111       -22.50207        13.76796
     2014.17385       -23.61905        13.55823
     2014.17659       -20.17003        13.23518
     2014.17932       -16.94101        13.91261
     2014.18206        -4.93699        13.80895
     2014.18480       -11.17497        13.36295
     2014.18754       -11.86795        13.27857
     2014.19028       -10.55293        13.49072
     2014.19301       -16.15491        13.29304
     2014.19575       -16.07389        13.22313
     2014.19849        -1.43887        13.35090
     2014.20123        -2.32085        13.29304
     2014.20397        -8.29883        13.35813
     2014.20670        -9.43081        13.41358
     2014.20944         2.14321        13.45456
     2014.21218        10.42423        13.61126
     2014.21492        11.44925        13.93672
     2014.21765        14.99827        14.23083
     2014.22039        14.69529        13.73662
     2014.22313         7.14831        13.45456
     2014.22587        -0.42467        13.52206
     2014.22861        -2.88866        13.51001
     2014.23171        -4.63971        15.12764
     2014.23408       -12.71162        13.36536
     2014.23682       -14.06160        13.28822
     2014.23956       -25.20258        13.50037
     2014.24230       -25.63256        13.29304
     2014.24503       -29.68654        13.03750
     2014.24777       -26.76252        13.97047
     2014.25051       -28.31550        13.09777
     2014.25325       -21.02548        13.20143
     2014.25598       -23.05646        13.52689
     2014.25872       -21.71644        13.03026
     2014.26146       -24.58442        13.31474
     2014.26420       -17.16240        13.19661
     2014.26694       -18.19038        13.31233
     2014.26967       -20.35036        13.23036
     2014.27241       -13.57934        13.54376
     2014.27515       -13.85832        13.56546
     2014.27789       -29.44030        13.95841
     2014.28062       -24.39328        13.25929
     2014.28336       -21.88726        13.06160
     2014.28610       -21.13124        13.88368
     2014.28884       -25.80622        13.56787
     2014.29158       -29.58621        13.12670
     2014.29431       -25.76319        13.17009
     2014.29705       -19.36117        13.13875
     2014.29979       -27.43615        13.24241
     2014.30253       -25.80313        13.30991
     2014.30527       -28.09811        13.18455
     2014.30800       -23.33409        13.17973
     2014.31074       -21.05307        13.32197
     2014.31348       -25.48105        13.14598
     2014.31622       -22.65403        13.16527
     2014.31895       -21.23801        13.07848
     2014.32169       -28.13899        13.30991
     2014.32443       -27.51397        13.63537
     2014.32717       -30.99895        13.77278
     2014.32991       -27.76493        13.07607
     2014.33264       -31.41091        12.99892
     2014.33538       -29.74989        13.16045
     2014.33812       -29.02287        13.68117
     2014.34086       -26.00985        13.25688
     2014.34358       -21.43557        13.52447
     2014.34634       -25.03088        13.39188
     2014.34907       -27.97079        13.76555
     2014.35181       -18.75477        13.54376
     2014.35455       -21.49075        13.11464
     2014.35728       -27.55774        13.10741
     2014.36002       -30.37072        13.16045
     2014.36393       -44.80385        32.73116
     2014.36550       -28.48668        13.13634
     2014.36824       -29.62866        13.23277
     2014.37097       -25.07764        13.12670
     2014.37371       -22.47162        13.16286
     2014.37645       -22.13260        13.03750
     2014.37919       -19.16158        13.33402
     2014.38193       -27.37256        13.31474
     2014.38466       -25.84354        13.20625
     2014.38740       -25.99552        13.29304
     2014.39014       -25.59950        13.58957
     2014.39288       -22.43848        13.27857
     2014.39561       -22.68146        13.31715
     2014.39835       -26.09044        13.28581
     2014.40109       -25.72642        13.70769
     2014.40383       -25.78040        13.52930
     2014.40657       -25.76938        13.41358
     2014.40930       -23.93536        13.32438
     2014.41257       -22.94866        16.32098
     2014.41478       -23.77232        12.94589
     2014.41752       -20.66530        13.02062
     2014.42026       -20.14629        13.36777
     2014.42299       -20.02927        13.22313
     2014.42573       -21.99725        13.07366
     2014.42847       -21.54923        13.30268
     2014.43121       -26.06021        12.97482
     2014.43394       -24.84019        13.55823
     2014.43668       -22.75717        13.15080
     2014.43942       -21.11715        13.30027
     2014.44216       -24.62113        13.07607
     2014.44490       -20.28311        13.22795
     2014.44763       -24.05809        13.44733
     2014.45037       -21.87907        13.07848
     2014.45311       -21.12005        13.14357
     2014.45585       -21.00103        13.26170
     2014.45859       -23.37601        13.30027
     2014.46132       -22.53399        13.20866
     2014.46406       -23.16797        13.11223
     2014.46680       -26.13895        13.04473
     2014.46957       -21.07533        13.14357
     2014.47227       -26.23091        13.21348
     2014.47501       -20.26589        13.11946
     2014.47775       -26.69087        13.40152
     2014.48049       -26.66185        13.12428
     2014.48323       -17.26483        13.14839
     2014.48596       -13.57382        13.06643
     2014.48870       -11.37580        13.15080
     2014.49144       -16.46578        13.00134
     2014.49418       -21.05276        12.76749
     2014.49965       -17.17472        13.14598
     2014.50239       -18.64370        13.22795
     2014.50513       -19.74868        13.06402
     2014.50787       -20.56866        12.77231
     2014.51060       -27.49264        13.03991
     2014.51334       -15.96462        12.77954
     2014.51608       -20.16560        13.64501
     2014.51899       -19.16502        15.37836
     2014.52156       -14.54756        13.56546
     2014.52561       -60.25274      1529.88208
     2014.52799       -32.38478        25.25051
     2014.52977       -17.31150        13.29304
     2014.53251       -16.50748        13.24241
     2014.53654        -5.03746       151.60188
     2014.53798       -11.69944        12.97241
     2014.54072       -22.79442        14.52495
     2014.54346        -8.94140        14.48879
     2014.54746       -10.47992        54.58970
     2014.54893       -17.28037        13.62814
     2014.55294       -21.71789        53.71940
     2014.55566       -25.31667        51.99329
     2014.55715       -21.67031        13.78243
     2014.55989       -18.49729        13.01339
     2014.56262        -9.87127        12.94589
     2014.56659       -17.65326        47.42727
     2014.56810       -18.61823        12.83017
     2014.57084       -18.97421        12.86633
     2014.57357       -23.12219        13.07607
     2014.57631       -17.54317        12.83981
     2014.57905       -17.23715        12.85669
     2014.58179       -18.48713        13.07607
     2014.58453       -18.84511        13.01339
     2014.58726       -15.95509        13.59439
     2014.59000        -9.57507        13.55581
     2014.59274       -14.73305        13.21589
     2014.59548       -16.44103        13.19420
     2014.59822       -15.85201        13.28099
     2014.60096       -17.44006        13.27616
     2014.60369       -14.32697        13.24965
     2014.60643       -18.19295        13.18697
     2014.60917       -14.03593        13.35090
     2014.61190        -7.16791        13.68600
     2014.61464        -9.81590        13.26893
     2014.61738       -13.95088        13.51242
     2014.62126       -34.73875        38.76293
     2014.62286       -13.61684        13.13393
     2014.62559       -10.68482        13.10500
     2014.62833       -17.90880        13.22795
     2014.63107       -11.89978        14.05244
     2014.63381       -12.89676        13.50037
     2014.63655       -13.69974        13.10259
     2014.63928       -15.85672        13.20866
     2014.64202       -14.10170        13.29786
     2014.64476       -15.91768        13.12428
     2014.64750        -9.17266        13.56787
     2014.65023       -19.44764        13.32197
     2014.65297       -12.41362        13.92466
     2014.65571       -15.88460        13.11223
     2014.65845        -8.92858        13.38224
     2014.66119       -15.35356        13.08089
     2014.66392        -9.84354        13.17250
     2014.66666       -11.42752        13.29545
     2014.66940       -15.74050        13.08089
     2014.67214       -16.58748        13.16768
     2014.67488       -22.34546        13.07607
     2014.67761       -24.85445        13.18697
     2014.68035       -20.87843        13.62573
     2014.68309       -17.36341        13.49313
     2014.68583       -21.39839        13.09294
     2014.68856       -19.73737        13.01098
     2014.69130       -25.37635        13.29786
     2014.69404       -24.94933        13.16286
     2014.69678       -25.25631        13.26893
     2014.69952       -12.12429        13.22795
     2014.70225       -21.92127        13.01339
     2014.70499       -14.51225        13.28340
     2014.70773       -14.53223        13.43286
     2014.71047       -13.65421        13.16768
     2014.71361        -8.82186        15.36872
     2014.71594       -15.53717        13.59921
     2014.71868       -18.57815        12.91937
     2014.72142       -20.79013        13.14116
     2014.72416       -15.67711        12.99410
     2014.72788       -23.99581        27.25869
     2014.72963        -9.31107        13.10982
     2014.73237       -22.98105        12.88562
     2014.73511       -18.85703        12.89767
     2014.73785       -22.10601        12.99651
     2014.74058       -14.48599        12.97482
     2014.74332       -13.57198        13.06643
     2014.74606       -15.15496        13.43045
     2014.74880       -20.27894        13.05437
     2014.75154       -14.37492        13.32920
     2014.75427       -13.60590        13.38706
     2014.75701       -16.08988        13.02785
     2014.75975       -12.71186        13.22795
     2014.76249       -16.81884        13.03750
     2014.76522       -16.20882        12.98928
     2014.76796       -12.72880        13.07607
     2014.77070       -15.07878        13.58715
     2014.77344       -16.00576        13.04473
     2014.77618       -13.40974        13.14598
     2014.77891       -14.96772        12.97482
     2014.78165        -9.17770        13.02785
     2014.78439        -9.17868        13.28099
     2014.78713       -13.20466        12.89767
     2014.79045       -17.38982        18.42318
     2014.79260       -11.53962        12.95553
     2014.79534       -18.05860        13.10500
     2014.79808        -3.20858        13.39911
     2014.80082        -8.47056        13.33643
     2014.80355       -12.47454        13.35331
     2014.80629       -12.03053        13.27375
     2014.80903       -12.46551        13.29545
     2014.81177       -13.56649        12.86392
     2014.81451        -9.33847        13.00857
     2014.81724        -6.40845        13.02785
     2014.81998        -5.55243        13.16045
     2014.82272       -10.13041        13.74627
     2014.82547        -1.59952        12.92419
     2014.82820       -15.72737        13.06884
     2014.83093       -18.92435        13.05919
     2014.83367        -4.60633        13.22795
     2014.83641         1.32369        14.15369
     2014.83915        11.03271        13.77037
     2014.84188        -5.45327        14.65513
     2014.84462        -9.12425        13.27375
     2014.84736        11.90977        13.32679
     2014.85010         6.45379        13.64501
     2014.85284       -12.40119        13.39429
     2014.85557       -14.43817        13.37983
     2014.85831        -9.33415        13.71975
     2014.86105       -16.68313        13.05919
     2014.86379       -18.61911        13.24482
     2014.86653       -15.06509        13.25929
     2014.86926       -15.38608        13.21348
     2014.87200       -14.85906        13.25929
     2014.87517       -12.79804        16.52831
     2014.87748       -11.36302        13.10259
     2014.88021       -16.77300        13.51483
     2014.88295       -18.03098        13.20866
     2014.88569       -16.01596        13.60162
     2014.88843        -9.15194        13.71252
     2014.89117        -4.96792        13.63055
     2014.89390        -9.56690        13.64019
     2014.89664         1.65912        13.61367
     2014.89939         0.54294        14.08860
     2014.90212        -1.81884        13.67635
     2014.90485        -2.16182        13.32438
     2014.90759         1.83920        13.21107
     2014.91033         0.90422        13.31956
     2014.91307         2.34524        13.37501
     2014.91581         6.52426        13.47385
     2014.91854         0.23528        13.38947
     2014.92128        -9.76570        13.25929
     2014.92402        -6.56968        13.34608
     2014.92676       -17.24066        13.08812
     2014.92950       -19.80064        13.40394
     2014.93223       -22.27662        13.10500
     2014.93497       -17.80061        13.08571
     2014.93771       -15.41859        13.13393
     2014.94045       -17.04157        13.11946
     2014.94318        -5.69855        13.34367
     2014.94592         4.96447        13.60403
     2014.94866         5.60149        13.25447
     2014.95140         9.94645        13.21589
     2014.95414         1.44553        13.44733
     2014.95687        -1.62538        13.00857
     2014.95961         2.87457        12.97482
     2014.96235        -1.92741        12.97964
     2014.96509         4.07361        13.73421
     2014.96783         6.44663        13.16768
     2014.97056        -8.13835        13.64501
     2014.97330         8.81067        13.82582
     2014.97604        13.38869        13.51965
     2014.97878        23.25871        13.66912
     2014.98151        26.83873        13.82100
     2014.98425        11.11375        13.75109
     2014.98699        11.93277        13.52447
     2014.98973        -4.28521        13.48831
     2014.99247        -3.23219        13.69323
     2014.99520         2.79283        14.13681
     2014.99794        -7.61916        13.39429
     2015.00068       -32.98814        14.45262
     2015.00342       -18.83912        14.29351
     2015.00616       -26.10010        14.51772
     2015.00889       -13.04308        15.61944
     2015.01163         9.89194        14.27664
     2015.01437         2.70396        15.01193
     2015.01711       -18.71502        15.33979
     2015.01984       -24.70900        13.16768
     2015.02258       -16.42398        13.36054
     2015.02532       -14.82296        12.96999
     2015.02806       -21.03894        12.98928
     2015.03080       -15.81292        13.10741
     2015.03353       -26.95890        13.23277
     2015.03627       -20.12288        13.13634
     2015.03901       -10.82186        13.15321
     2015.04175        -7.18484        12.98446
     2015.04449        -4.54082        13.28099
     2015.04722        -5.67880        13.35090
     2015.04996       -14.48578        13.10741
     2015.05270        -7.62776        13.38465
     2015.05544        -4.97581        13.46662
     2015.05817       -21.10372        13.01580
     2015.06091       -15.68670        13.16527
     2015.06365        -9.24469        13.47385
     2015.06639       -11.08967        13.17732
     2015.06913       -21.22065        13.23277
     2015.07185       -23.57943        13.03750
     2015.07460       -16.37861        13.24000
     2015.07734       -11.14159        13.47144
     2015.08008         0.59243        13.31715
     2015.08320        -1.65789        15.94008
     2015.08555        -0.99753        13.40394
     2015.08829       -14.64251        13.23277
     2015.09103       -26.36449        13.54376
     2015.09377       -25.91147        13.18697
     2015.09650       -19.76745        13.12187
     2015.09936        -8.78501        14.11994
     2015.10198       -15.48741        13.17009
     2015.10472       -20.45139        13.03026
     2015.10747       -12.75864        13.27857
     2015.11019       -21.38735        13.31715
     2015.11293       -15.45633        13.31474
     2015.11567       -26.56331        13.17009
     2015.11841       -20.89436        13.28340
     2015.12115       -21.00327        13.25206
     2015.12388       -24.67025        13.04232
     2015.12662       -23.83724        13.24482
     2015.12936       -21.27522        13.13393
     2015.13210       -20.74320        13.09536
     2015.13483       -20.49818        13.38224
     2015.13758       -22.50922        13.37018
     2015.14031       -25.39514        13.10982
     2015.14305       -28.62312        13.11223
     2015.14579       -23.28710        13.56305
     2015.14852       -23.39608        13.08089
     2015.15126       -20.10806        13.10982
     2015.15400       -24.13304        13.21589
     2015.15674       -26.27009        13.18697
     2015.15948       -20.34000        12.96035
     2015.16222       -19.66711        13.21348
     2015.16495       -23.47196        14.13922
     2015.16769       -17.85094        13.16768
     2015.17043       -19.64792        13.17491
     2015.17316       -12.75184        13.28099
     2015.17591       -16.99495        13.45215
     2015.17864       -16.05986        13.05678
     2015.18138       -15.73784        13.27375
     2015.18412       -17.73782        13.31715
     2015.18685       -21.08180        13.08330
     2015.18959       -18.65778        13.03268
     2015.19233       -11.80377        13.41117
     2015.19507        -9.15981        13.20625
     2015.19858       -18.15947        18.93667
     2015.20054       -21.99871        13.02544
     2015.20328       -23.05669        13.09777
     2015.20602       -16.68467        16.65367
     2015.20876       -20.80965        13.31474
     2015.21149       -22.78163        13.38706
     2015.21424       -24.87267        13.52930
     2015.21697       -25.96059        12.96035
     2015.21971       -23.03257        12.89285
     2015.22245       -22.20455        13.02062
     2015.22518       -20.15653        12.86392
     2015.22792       -20.76751        13.18214
     2015.23066       -22.57049        12.98446
     2015.23340       -21.90454        13.27857
     2015.23613       -24.56945        13.41840
     2015.23887       -13.07843        13.85475
     2015.24161       -19.61241        14.04520
     2015.24436       -20.24853        13.84511
     2015.24776       -19.96074        18.52925
     2015.24982        -5.89635        13.30991
     2015.25256        -2.32833        13.11223
     2015.25530       -20.64032        13.27375
     2015.25804       -26.46230        13.05196
     2015.26142       -21.62024        17.13582
     2015.26351       -22.88526        12.95553
     2015.26625       -22.94924        13.07125
     2015.26899       -20.43622        13.17732
     2015.27173         3.22180        14.02592
     2015.41411       -24.56638        12.80124
     2015.41683       -19.81216        12.79883
     2015.41957       -20.89814        12.78436
     2015.42231       -18.43512        12.89526
     2015.42505       -21.39910        13.30027
     2015.42778       -23.31108        12.81571
     2015.43052       -20.99206        12.75302
     2015.43326       -20.63004        13.37260
     2015.43600       -24.73802        14.03074
     2015.43874       -19.51500        13.30268
     2015.44147       -24.69898        13.39429
     2015.44421       -24.28996        12.66383
     2015.44695       -24.07795        12.79642
     2015.44969       -26.91393        12.74097
     2015.45243       -21.45791        13.16286
     2015.45516       -17.20489        12.69758
     2015.45790       -19.61687        13.07848
     2015.46064       -21.88185        13.28340
     2015.46338       -21.56883        12.99169
     2015.46611       -15.01381        12.71927
     2015.46885       -18.67479        12.69999
     2015.47158       -14.24457        13.21589
     2015.47433       -20.69275        14.46468
     2015.47707       -23.92273        13.16768
     2015.47980       -18.25371        13.68841
     2015.48254       -18.88269        12.96276
     2015.48528       -23.15567        12.78678
     2015.48802       -21.56965        12.79642
     2015.49076       -18.28663        13.06884
     2015.49349       -21.50661        12.93624
     2015.49623       -17.72859        13.01821
     2015.49897       -22.83657        13.32197
     2015.50171       -16.66755        12.71686
     2015.50444       -18.14153        12.76508
     2015.50718       -18.14751        12.85669
     2015.50992       -11.52549        12.89044
     2015.51266       -24.99248        12.74338
     2015.51540       -19.74546        12.83258
     2015.51813       -17.66844        12.97964
     2015.52087       -12.51642        12.84463
     2015.52361       -17.69840        12.87115
     2015.52635       -20.76438        12.64695
     2015.52908       -19.34036        13.41840
     2015.53182       -17.13534        12.72651
     2015.53456       -17.63932        12.79883
     2015.53730       -17.96630        12.89526
     2015.54004       -19.68728        12.90490
     2015.54277       -13.84626        13.05919
     2015.54551       -15.75024        13.11464
     2015.54825       -12.55622        13.05678
     2015.55099       -13.05620        12.82294
     2015.55373       -13.13818        12.97723
     2015.55646        -9.35616        13.39911
     2015.55920       -11.61814        12.80847
     2015.56194       -12.53012        12.93624
     2015.56468       -16.47910        12.96999
     2015.56741       -16.32508        13.20625
     2015.57015       -11.97706        13.44733
     2015.57289       -19.10704        13.23036
     2015.57563       -17.32703        13.02785
     2015.57837       -14.69901        13.00857
     2015.58110       -14.17499        12.95312
     2015.58384       -12.16297        12.92419
     2015.58658       -12.07795        13.23277
     2015.58932       -15.71693        12.83258
     2015.59206       -14.00291        13.03268
     2015.59479       -17.97389        13.62814
     2015.59753       -17.72487        13.14116
     2015.60027       -20.14485        13.19661
     2015.60301       -10.42283        13.15563
     2015.60574       -11.09981        13.13393
     2015.60848       -13.64779        12.96276
     2015.61122       -14.51477        13.17732
     2015.61396       -10.94775        13.17973
     2015.61670       -17.35673        12.69999
     2015.61943       -13.63271        13.75591
     2015.62217       -12.40569        12.73133
     2015.62490        -7.92247        12.95553
     2015.62765        -5.55465        13.15804
     2015.63039       -10.86563        12.72168
     2015.63312       -14.12861        12.98205
     2015.63586       -15.83759        12.63008
     2015.63860       -15.18157        13.13634
     2015.64134       -14.97556        13.09294
     2015.64407       -12.87854        13.04714
     2015.64681       -16.67352        12.83258
     2015.64955       -16.93250        12.91214
     2015.65229       -11.18448        13.81136
     2015.65503       -13.45046        14.12958
     2015.65776        -8.16544        12.72168
     2015.66050       -15.13742        12.78195
     2015.66324        -6.99440        12.75544
     2015.66598        -6.75538        12.85428
     2015.66872        -9.63436        12.82053
     2015.67145       -11.44727        13.76796
     2015.67421       -14.87758        13.20143
     2015.67693       -15.35730        12.77231
     2015.67966       -17.42822        12.70240
     2015.68240       -15.02326        12.71927
     2015.68514       -14.00824        13.17250
     2015.68788        -5.83122        15.63873
     2015.69062       -11.11520        13.00616
     2015.69336       -14.62218        14.38512
     2015.69609        -9.00416        12.69034
     2015.69883        -8.64414        12.46373
     2015.70157       -14.09312        12.66624
     2015.70431       -11.44711        12.57945
     2015.70705       -17.08209        12.59150
     2015.70978       -10.42607        12.92901
     2015.71252        -9.27305        12.75785
     2015.71526        -9.82703        12.64695
     2015.71800       -12.46401        13.64260
     2015.72073        -8.69099        12.94107
     2015.72347       -10.32797        12.70722
     2015.72621       -11.42295        12.62284
     2015.72895       -13.54893        12.73615
     2015.73169       -12.08391        12.67588
     2015.73442       -17.20789        12.68552
     2015.73716       -11.82387        12.52641
     2015.73990       -13.88185        12.95553
     2015.74264       -11.57483        12.72410
     2015.74538       -16.94281        13.13393
     2015.74811       -23.17779        13.34608
     2015.75085       -20.37977        12.75785
     2015.75359       -18.17675        12.69758
     2015.75633       -11.81473        12.56498
     2015.75906       -12.73871        12.75061
     2015.76180       -11.19069        12.58186
     2015.76454        -9.26267        14.28146
     2015.76728       -14.93165        13.10741
     2015.77002       -12.82264        12.80606
     2015.77275        -7.17862        12.51436
     2015.77549        -4.83760        12.62766
     2015.77823       -11.48558        13.02785
     2015.78097       -10.56056        12.79642
     2015.78371       -13.54454        12.84463
     2015.78644        -7.70952        12.74820
     2015.78918        -7.72450        12.78678
     2015.79192        -4.93848        12.62043
     2015.79466       -16.96846        13.16768
     2015.79739       -12.36644        12.94589
     2015.80013        -7.02442        13.17732
     2015.80287       -12.84740        12.66865
     2015.80561       -14.47238        12.89285
     2015.80835       -14.16436        12.56981
     2015.81108       -17.13334        12.64936
     2015.81382       -14.52732        12.79883
     2015.81656       -15.61530        12.79160
     2015.81930       -17.27928        12.49989
     2015.82203        -9.49126        12.80606
     2015.82477       -13.39924        12.96276
     2015.82751       -11.06422        12.78919
     2015.83025       -12.24220        12.63731
     2015.83299       -13.83219        12.51677
     2015.83572       -10.43517        12.72892
     2015.83846       -12.91915        13.60162
     2015.84120       -21.83213        13.03991
     2015.84394       -20.18911        12.93865
     2015.84668       -12.88809        13.01339
     2015.84941        -7.14407        13.63537
     2015.85215         1.69395        12.90973
     2015.85489         1.19697        13.14598
     2015.85763        -5.91201        12.91937
     2015.86036       -14.28299        12.89767
     2015.86310         3.42503        13.21831
     2015.86584        19.90505        12.95071
     2015.86858        11.19707        12.92660
     2015.87132        10.03509        13.06402
     2015.87387        14.71761        13.94154
     2015.88344         3.55995        36.86805
     2015.88502         8.44205        13.01821
     2015.88774         1.56621        13.29786
     2015.89046       -22.94851        13.01098
     2015.89322       -20.24375        12.88803
     2015.89596       -22.19174        12.93142
     2015.89869       -19.49572        12.85187
     2015.90143       -23.37070        12.82294
     2015.90418       -18.23974        13.11946
     2015.90691       -17.28966        13.01098
     2015.90965        -0.02164        13.10259
     2015.91238        -1.99762        13.10259
     2015.91512         8.92840        12.95794
     2015.91786        -6.28658        13.05437
     2015.92060         0.15744        13.08330
     2015.92334        -4.68661        12.93865
     2015.92607       -14.80552        13.01339
     2015.92881       -13.76750        12.90731
     2015.93155        10.05352        13.59680
     2015.93429        20.81654        14.39959
     2015.93702         5.82856        13.82100
     2015.93884        -5.17663        23.71725
     2015.94251         4.67153        13.70046
     2015.94524        12.96362        13.62091
     2015.94798        15.52164        13.56787
     2015.95071        29.29666        13.41117
     2015.95345        19.02568        13.28099
     2015.95491       -36.00757        65.70098
     2015.96167        10.64067        13.14116
     2015.96440         6.58475        13.01339
     2015.96714         7.83477        15.05291
     2015.96988        -6.02921        13.85716
     2015.97262        18.17181        13.14116
     2015.97535         6.71283        13.32438
     2015.97782         6.39868        15.03603
     2015.98084         2.70981        13.38465
     2015.98357         1.78589        13.14357
     2015.98630         5.71398        13.05678
     2015.98904        13.91393        12.98446
     2015.99178        10.16795        13.28340
     2015.99452        17.28397        13.31233
     2015.99726        12.86599        13.38706
     2016.00000        12.05194        13.93190
     2016.00273       -13.03197        13.18455
     2016.00547       -21.45895        12.82776
     2016.00821       -25.78293        13.19902
     2016.01095       -19.18391        12.80124
     2016.01368       -24.91289        12.99169
     2016.01642       -31.55387        13.00375
     2016.01916       -23.85892        13.22554
     2016.02190       -22.76683        13.08330
     2016.02464        -7.50781        12.70722
     2016.02737        -5.09980        12.97964
     2016.03011        11.05122        12.99169
     2016.03285        19.64324        12.89526
     2016.03550        23.14852        13.88850
     2016.03833        15.33722        14.15610
     2016.04380        35.36132        13.58715
     2016.04654        24.35534        13.64742
     2016.04928        21.30236        13.44974
     2016.05201         9.25838        15.63391
     2016.05475        17.24540        13.68117
     2016.05749         7.51135        14.00663
     2016.06023         2.47744        13.83788
     2016.06297        -0.68854        14.00663
     2016.06570        -3.34852        14.48155
     2016.06844        -5.49850        13.81618
     2016.07001        -2.12026        32.00551
     2016.07478       -17.74640        21.45594
     2016.07666       -11.36151        13.45938
     2016.07939        -4.18342        13.03991
     2016.08213        -3.77340        13.22313
     2016.08487        -6.93938        13.19902
     2016.08761        -5.44936        12.95071
     2016.09034         7.56365        13.08089
     2016.09308         7.37467        13.17973
     2016.09582        14.91663        13.29304
     2016.09856         5.43871        13.65707
     2016.10130         9.34673        13.43769
     2016.10403         0.03475        13.74386
     2016.10677       -24.54923        13.17009
     2016.10951       -31.52921        13.01580
     2016.11225       -25.67319        12.98205
     2016.11499       -28.14124        12.96758
     2016.11772       -25.05815        12.99892
     2016.12046       -16.69113        12.95553
     2016.12320        -6.13311        13.25929
     2016.12594         2.84391        13.15321
     2016.12867        -4.27007        13.46420
     2016.13141         2.14495        13.17491
     2016.13415         5.17190        13.24241
     2016.13689         1.39899        12.93142
     2016.13963        -0.21799        13.16286
     2016.14236       -15.91197        13.11946
     2016.14510       -18.10995        12.91455
     2016.14784       -27.32993        13.03991
     2016.15058       -15.01291        13.03509
     2016.15332       -20.15396        13.22795
     2016.15605       -20.01088        12.92419
     2016.15879       -13.12286        13.33402
     2016.16153       -14.49584        13.47385
     2016.16427       -15.55482        13.22554
     2016.16700       -23.48980        13.03268
     2016.16974       -27.81478        12.87115
     2016.17248       -19.34482        13.21348
     2016.17522       -19.65574        13.02785
     2016.17796        -7.26672        13.30750
     2016.18069       -11.81970        13.61608
     2016.18343        -2.51668        13.36295
     2016.18617        -3.58566        13.09536
     2016.18869         1.29633        14.12717
     2016.19165        -7.71669        13.03509
     2016.19438       -12.87760        12.85187
     2016.19712       -19.28858        12.79642
     2016.19986       -23.65256        13.20384
     2016.20260       -16.64654        13.20866
     2016.20533       -16.99852        13.50760
     2016.20807       -21.39350        13.18697
     2016.21081       -28.10455        13.28099
     2016.21355       -22.62246        13.07125
     2016.21629       -26.14644        12.72892
     2016.21902       -30.92443        12.80847
     2016.22176       -24.56141        12.63008
     2016.22450       -25.41039        12.84946
     2016.22720       -25.69091        12.95312
     2016.22997       -29.21135        12.70963
     2016.23271       -15.74333        12.80606
     2016.23545       -13.93631        13.17009
     2016.23819       -31.55529        12.89526
     2016.24093       -27.32927        13.10259
     2016.24366       -27.55825        12.89767
     2016.24640       -27.98423        13.49554
     2016.24914       -23.34321        12.64213
     2016.25188       -29.12919        12.74820
     2016.25462       -24.50717        12.60838
     2016.25722       -21.55437        13.50519
     2016.26326       -34.95805        14.92273
     2016.26557       -24.69109        12.94589
     2016.26830       -27.35407        12.86633
     2016.27104       -29.97405        12.80124
     2016.27378       -23.75003        12.74579
     2016.27652       -27.89501        13.06160
     2016.27926       -23.06699        12.62525
     2016.28109       -25.19438        24.61406
     2016.28605       -68.41522      1810.47473
     2016.28747       -28.09794        12.87115
     2016.29021       -27.83192        12.76026
     2016.29295       -28.31490        12.66624
     2016.29568       -27.26888        12.83499
     2016.29842       -28.55886        13.09777
     2016.30116       -28.46984        13.19902
     2016.30390       -28.42782        12.91696
     2016.30663       -28.08980        12.69034
     2016.30937       -28.70478        12.72168
     2016.31211       -27.85076        12.74097
     2016.31485       -26.11774        12.90490
     2016.31760       -17.17698        13.02303
     2016.32033       -29.60977        12.85187
     2016.32306       -31.97568        12.80124
     2016.32580       -27.42266        12.84222
     2016.32854       -25.92064        12.84222
     2016.33128       -30.63362        12.80847
     2016.33401       -26.38360        13.23759
     2016.33675       -31.95958        12.90249
     2016.33949       -27.83956        12.85910
     2016.34223       -28.62454        13.06402
     2016.34496       -29.61752        13.29545
     2016.34770       -24.75351        13.14598
     2016.35044       -28.71149        14.03797
     2016.35318       -32.36447        13.03268
     2016.35592       -34.64345        12.79642
     2016.35865       -30.55343        12.73133
     2016.36139       -27.18941        12.80847
     2016.36413       -24.88339        12.82776
     2016.36687       -25.54437        12.88080
     2016.36961       -18.35135        12.68070
     2016.37234       -18.14533        12.98446
     2016.37508       -26.86031        12.91214
     2016.37782       -39.53629        12.77472
     2016.38056       -30.48227        13.26411
     2016.38329       -25.62525        12.82535
     2016.38603       -26.13823        12.76267
     2016.38877       -13.07421        12.80606
     2016.39151       -24.46819        13.02062
     2016.39425       -23.90817        12.84463
     2016.39698       -18.94615        13.08812
     2016.39972       -16.86313        12.95071
     2016.40246       -23.96211        13.06160
     2016.40520       -29.59309        12.77954
     2016.40794       -25.17007        12.86392
     2016.41067       -28.92906        12.98446
     2016.41341       -25.56604        12.82294
     2016.41615       -27.13602        12.84946
     2016.41889       -29.94000        12.90490
     2016.42162       -23.69098        12.87839
     2016.42436       -34.72996        12.74338
     2016.42710       -25.94194        12.80606
     2016.42984       -24.16792        13.15080
     2016.43258       -25.89890        12.66383
     2016.43531       -18.56288        12.78195
     2016.43805       -17.78386        13.07125
     2016.44079       -24.79584        12.85910
     2016.44353       -23.88182        12.83740
     2016.44626       -27.91380        12.75061
     2016.44900       -26.04078        12.92901
     2016.45174       -23.05076        12.70240
     2016.45448       -18.31874        12.92178
     2016.45722       -24.06072        12.86874
     2016.45995       -22.09170        12.79401
     2016.46269       -22.77368        12.74579
     2016.46543       -22.61466        12.73133
     2016.46817       -21.21964        12.84222
     2016.47091       -21.02562        12.71445
     2016.47364       -19.18060        12.83981
     2016.47638       -19.34559        12.85669
     2016.47912       -20.25557        13.13393
     2016.48186       -27.02355        12.83981
     2016.48459       -24.85353        12.78436
     2016.48733       -24.24451        12.84463
     2016.49007       -21.72549        12.69517
     2016.49281       -23.77447        12.84705
     2016.49555       -23.59245        13.00375
     2016.49828       -25.00243        12.94589
     2016.50102       -28.44741        12.86151
     2016.50376       -18.62839        12.84705
     2016.50650       -22.22737        13.25447
     2016.50924       -20.28335        12.70963
     2016.51197       -22.28833        12.86633
     2016.51471       -18.23131        13.10259
     2016.51745       -15.94529        13.49313
     2016.52019       -21.77327        12.70963
     2016.52292       -22.52425        12.73133
     2016.52566       -20.86323        13.18214
     2016.52840       -21.52821        12.88321
     2016.53114       -25.10919        12.88562
     2016.53388       -22.08317        12.92178
     2016.53661       -22.63315        12.95794
     2016.53935       -21.69314        12.88321
     2016.54209       -14.99112        12.84946
     2016.54483       -18.71010        13.09294
     2016.54757       -20.96308        12.77231
     2016.55030       -19.81006        13.28822
     2016.55304       -16.54704        13.08089
     2016.55578       -19.93102        13.26411
     2016.55852       -16.83700        12.94830
     2016.56125       -20.84198        12.76749
     2016.56399       -19.47996        13.18938
     2016.56673       -22.84994        13.07848
     2016.56947       -23.50592        13.03509
     2016.57221       -21.82790        13.16286
     2016.57494       -24.51888        13.12428
     2016.57768       -20.50986        12.88321
     2016.58042       -17.05484        12.72168
     2016.58317       -19.49302        12.93624
     2016.58590       -18.72880        12.83740
     2016.58863       -20.72178        13.33643
     2016.59137       -21.75076        12.90731
     2016.59411       -16.96474        12.86633
     2016.59685       -14.73772        13.02062
     2016.59958       -19.77470        12.94107
     2016.60232       -15.22969        13.05437
     2016.60506       -20.19667        12.98687
     2016.60780       -27.58065        12.95312
     2016.61054       -17.55563        13.14116
     2016.61327       -17.36661        12.94830
     2016.61601       -21.53259        13.03026
     2016.61875       -21.71057        12.93142
     2016.62149       -21.88055        12.96999
     2016.62423       -17.64253        13.25206
     2016.62696       -21.22451        13.11464
     2016.62970       -20.71649        13.16527
     2016.63244       -21.42047        13.36777
     2016.63518       -17.96945        12.86874
     2016.63791       -13.80743        12.84705
     2016.64065       -10.43841        13.19420
     2016.64339       -26.67039        13.34849
     2016.64613       -19.15537        12.76267
     2016.64887       -21.86235        13.18697
     2016.65161       -32.25440        13.51724
     2016.65434       -18.00831        12.85428
     2016.65708       -19.89429        12.75061
     2016.65982       -18.30327        12.84222
     2016.66256       -18.75025        12.89285
     2016.66529       -16.90123        12.89044
     2016.66803       -13.50122        13.16527
     2016.67077       -21.09620        13.01098
     2016.67351       -14.28018        13.00375
     2016.67624       -17.05816        12.88803
     2016.67898       -17.55214        12.88562
     2016.68172       -13.47512        12.88562
     2016.68446       -14.00610        13.38947
     2016.68720       -14.29508        13.84029
     2016.68993       -14.15506        13.57992
     2016.69267       -11.23704        12.91214
     2016.69541       -15.02902        12.76990
     2016.69815       -15.45900        12.89767
     2016.70089       -17.80098        12.82053
     2016.70362       -13.87896        13.40152
     2016.70636       -16.00694        13.77520
     2016.70911       -11.20212        13.68359
     2016.71184       -11.69390        12.88080
     2016.71458       -11.34901        12.72892
     2016.71731       -15.34486        12.84463
     2016.72005       -15.78984        12.77231
     2016.72279       -13.98182        12.78678
     2016.72553       -13.87080        13.51724
     2016.72826       -13.05978        13.20384
     2016.73100       -18.43077        12.70240
     2016.73374        -9.97275        12.89526
     2016.73648        -9.91573        12.87839
     2016.73921       -16.87071        12.95312
     2016.74195       -16.59069        12.84463
     2016.74469       -23.12867        14.45262
     2016.74743       -20.50365        12.93865
     2016.75017       -17.35663        12.80124
     2016.75269       -11.76464        14.11029
     2016.75629        -8.88756        18.51238
     2016.75838       -10.58757        12.93865
     2016.76112       -14.20255        12.76990
     2016.76386       -10.13353        13.09536
     2016.76659       -12.31951        12.95312
     2016.76933        -9.76049        12.76267
     2016.77207       -14.34147        12.91696
     2016.77479       -13.39819        12.91696
     2016.77754       -13.44743        12.66624
     2016.78028       -17.64841        12.88562
     2016.78302       -14.73239        13.82100
     2016.78576        -8.57437        13.00857
     2016.78761       -12.85409        20.72065
     2016.79462        -9.53228        18.64256
     2016.79671       -14.00530        12.72651
     2016.79945       -19.81528        12.99892
     2016.80219        -9.07026        12.96758
     2016.80492       -13.95224        12.85428
     2016.80766       -10.11522        12.82053
     2016.81040       -24.38320        12.78919
     2016.81314       -18.92618        12.96035
     2016.81587       -18.49216        13.10018
     2016.81861       -20.72514        12.90490
     2016.82135       -13.38712        12.87356
     2016.82409       -18.19410        12.80124
     2016.82683       -20.67108        12.90490
     2016.82956       -15.17406        12.83017
     2016.83230       -13.94904        12.92660
     2016.83504       -14.62202        12.83258
     2016.83777        -8.84394        18.28094
     2016.84052        -9.23698        13.17732
     2016.84325       -15.87796        12.84946
     2016.84599        -9.63894        12.96035
     2016.84873       -11.94592        12.88321
     2016.85147       -14.89790        12.94589
     2016.85420       -15.50888        13.11705
     2016.85694       -16.78786        12.88803
     2016.85968       -18.78085        13.37983
     2016.86242       -11.70583        12.85910
     2016.86516       -12.69581        12.90249
     2016.86789       -14.16979        12.93865
     2016.87063       -12.02477        12.95794
     2016.87338        -4.03588        12.90973
     2016.87611        -1.22273        12.95553
     2016.87885        -5.38371        13.19179
     2016.88158       -15.38369        12.91455
     2016.88432       -14.17967        12.91455
     2016.88706       -14.58665        12.82535
     2016.88980       -14.52863        13.26170
     2016.89253       -11.51561        12.81329
     2016.89527        -4.73459        12.95794
     2016.89801        -0.08457        13.23036
     2016.90075        -1.57555        12.86633
     2016.90349         3.69347        13.22795
     2016.90622        -1.21951        12.98687
     2016.90896        -6.50949        13.07125
     2016.91170         1.06553        13.11223
     2016.91444       -12.02245        12.88803
     2016.91718        -6.81943        13.59921
     2016.91993         7.60832        14.05726
     2016.92265        12.73961        14.26699
     2016.92539        12.89462        14.26458
     2016.92813        -8.03936        14.46468
     2016.93086         2.13166        14.28387
     2016.93360         6.64168        14.27905
     2016.93634        -2.05230        13.32679
     2016.93910         1.34946        13.54135
     2016.94182        -7.75926        12.96758
     2016.94455       -12.54924        13.26411
     2016.94729       -15.20022        13.08812
     2016.95003       -20.53020        13.00857
     2016.95277       -23.62218        13.04473
     2016.95551       -21.06416        12.77713
     2016.95710       -22.13025        34.54647
     2016.96165       -12.25542        17.62039
     2016.96372       -10.47810        12.88080
     2016.96646         4.92792        13.05678
     2016.96919         4.78594        12.88803
     2016.97193         0.01496        12.99651
     2016.97467         6.06098        13.03509
     2016.97743         0.77173        13.28099
     2016.98015         2.53602        12.94107
     2016.98288        -3.12496        12.93383
     2016.98562        -3.08294        13.25447
     2016.98836        19.60707        12.98928
     2016.99110        15.87809        13.03268
     2016.99384         8.07111        12.99169
     2016.99657        10.27413        13.05437
     2016.99931        11.83115        13.23036
     2017.00169         1.78718        15.57364
     2017.00549         2.62743        18.48104
     2017.00752       -13.45979        13.11705
     2017.01026       -26.26777        13.17009
     2017.01300       -19.06575        12.97964
     2017.01576       -24.19899        13.06160
     2017.01848       -29.84071        13.06643
     2017.02121       -24.76069        12.72410
     2017.02395       -21.19367        13.07125
     2017.02669       -20.55165        13.08571
     2017.02943       -18.41463        12.78436
     2017.03216       -19.08161        12.79642
     2017.03429       -15.03209        18.56783
     2017.04352         0.76893        16.40053
     2017.04585        -4.93451        14.53941
     2017.04859         1.06851        13.69564
     2017.05133        -8.63547        13.10259
     2017.05409       -15.66572        13.17009
     2017.05681       -12.74944        13.04955
     2017.05954       -23.86742        12.91214
     2017.06228       -26.64840        12.87356
     2017.06502       -19.70538        13.37983
     2017.06776        -4.83536        13.56787
     2017.07049        -2.68934        13.69323
     2017.07325         2.64042        13.78002
     2017.07597         6.89370        13.65225
     2017.07871        11.65172        13.95841
     2017.08145         9.37674        14.30316
     2017.08418         1.41876        13.98975
     2017.08692         3.85578        13.93190
     2017.08966         0.30780        13.67153
     2017.09240        -1.39918        13.64742
     2017.09514         8.58984        13.30509
     2017.09787        11.58586        13.73903
     2017.10061         4.37188        13.66189
     2017.10335       -14.95010        13.39188
     2017.10609       -15.56308        13.03750
     2017.10882       -10.78606        13.08330
     2017.11158       -14.70231        13.81136
     2017.11430       -18.24902        12.85910
     2017.11704       -24.93801        13.10500
     2017.11978       -22.78699        13.44010
     2017.12251       -23.11497        12.94107
     2017.12525       -18.04595        12.78919
     2017.12799       -16.92893        13.03268
     2017.13075       -17.49717        12.88562
     2017.13347       -21.82389        12.73856
     2017.13964       -22.84561        18.23273
     2017.14168       -24.11983        12.95071
     2017.14442       -25.90181        12.76267
     2017.14627       -28.33446        24.24762
     2017.14991       -28.43803        12.89767
     2017.15263       -20.08775        12.91455
     2017.15537       -18.93073        12.75785
     2017.15811       -19.43471        13.30991
     2017.16084       -21.60769        12.86633
     2017.16358       -24.87867        12.78195
     2017.16632        -6.07165        12.95794
     2017.16908         0.09810        13.08330
     2017.17180         2.71439        12.96035
     2017.17453         3.77041        12.80847
     2017.17727         0.21643        17.12377
     2017.18001         1.40044        13.07366
     2017.18275         1.45746        12.88321
     2017.18548        -2.43852        12.93383
     2017.18825        -9.13383        12.97723
     2017.19096        -9.82748        12.91937
     2017.19370        -5.30046        12.81088
     2017.19644        -5.19644        13.30027
     2017.19917        -2.40942        13.92466
     2017.20191        -5.39040        13.66912
     2017.20465         9.46362        13.78966
     2017.20739         4.29064        13.24241
     2017.21013         1.21266        13.15563
     2017.21286        -1.60832        13.45215
     2017.21560        -4.14230        13.41599
     2017.21834         6.21172        13.45697
     2017.22108         7.14274        13.32920
     2017.22381        -9.47924        13.80895
     2017.22654       -12.48409        13.90297
     2017.22929       -14.52020        13.34849
     2017.23203       -13.63618        13.41840
     2017.23477       -10.10016        14.17538
     2017.23750       -15.03114        13.42322
     2017.24024       -30.31612        13.18214
     2017.24298       -34.74910        13.25688
     2017.24572        -9.44009        13.50760
     2017.24846       -31.11707        13.00134
     2017.25119       -35.75805        12.87115
     2017.25393       -33.35503        13.19661
     2017.25667       -22.53901        13.49796
     2017.25941       -22.00099        12.91937
     2017.26214       -16.02097        13.03991
     2017.26488       -24.03595        13.08089
     2017.26762       -22.37193        12.74097
     2017.27036       -22.87291        12.83981
     2017.27310       -30.08689        12.84705
     2017.27583       -34.85987        12.87597
     2017.27857       -34.16885        12.93624
     2017.28131       -33.97283        12.87356
     2017.28405       -31.95681        13.20625
     2017.28679       -30.96879        12.58186
     2017.28952       -30.44977        12.82535
     2017.29226       -28.91275        12.98687
     2017.29500       -28.86773        12.96035
     2017.29774       -31.19171        12.75785
     2017.30047       -33.31169        12.91696
     2017.30321       -29.59967        12.68552
     2017.30595       -32.37065        13.30268
     2017.30869       -30.65664        12.94107
     2017.31143       -26.56762        12.83740
     2017.31416       -26.87960        12.78678
     2017.31690       -24.28558        12.63972
     2017.31964       -26.19456        13.02544
     2017.32238       -25.92954        13.03268
     2017.32512       -31.59752        12.79642
     2017.32785       -26.18450        12.74579
     2017.33059       -27.01248        12.87356
     2017.33333       -27.93946        12.83499
     2017.33607       -29.25944        13.14598
     2017.33880       -31.68542        12.81088
     2017.34154       -24.34540        13.29304
     2017.34429       -27.44151        12.90973
     2017.34702       -26.38936        12.96276
     2017.34976       -21.59634        12.86874
     2017.35249       -26.19932        12.86633
     2017.35523       -32.34130        12.87839
     2017.35797       -31.84128        12.88321
     2017.36071       -28.89426        12.85669
     2017.36344       -31.56824        12.78436
     2017.36618       -24.11322        12.78195
     2017.36892       -18.43520        12.86392
     2017.37166       -23.45618        12.90490
     2017.37440       -26.48017        12.81812
     2017.37713       -25.09515        13.08089
     2017.37987       -31.23713        13.10982
     2017.38261       -27.45411        13.06160
     2017.38535       -37.58409        12.73374
     2017.38809       -30.07307        13.10259
     2017.39082       -30.25905        12.68070
     2017.39356       -28.86503        12.66383
     2017.39630       -21.65301        12.95794
     2017.39904       -31.61299        12.84463
     2017.40177       -27.61997        12.81812
     2017.40451       -20.28095        14.47673
     2017.40726       -25.54400        13.05919
     2017.40999       -24.61291        12.59632
     2017.41273       -25.43189        12.64213
     2017.41546       -24.54387        12.92660
     2017.41820       -29.17285        13.01821
     2017.42094       -26.63283        12.89044
     2017.42368       -29.49981        12.61802
     2017.42642       -30.16279        12.79401
     2017.42915       -29.28377        12.76508
     2017.43189       -26.93675        12.84946
     2017.43463       -22.40873        12.70963
     2017.43737       -22.86372        12.67588
     2017.44010       -28.25970        12.64213
     2017.44284       -22.79568        12.72410
     2017.44558       -21.13166        12.75544
     2017.44832       -21.50364        12.79401
     2017.45106       -23.30462        12.70963
     2017.45379       -20.77160        12.96999
     2017.45653       -20.92458        12.99169
     2017.45927       -27.87756        12.67829
     2017.46201       -27.56054        12.71204
     2017.46475       -25.25052        12.80606
     2017.46748       -26.84750        12.76508
     2017.47022       -27.97848        12.76026
     2017.47296       -23.19946        12.76990
     2017.47570       -29.17744        12.67588
     2017.47843       -26.13642        12.84463
     2017.48117       -27.79140        12.82053
     2017.48391       -29.73938        12.75061
     2017.48665       -25.07236        12.77231
     2017.48939       -18.75434        12.80847
     2017.49212       -22.66832        12.78919
     2017.49486       -28.42630        12.89526
     2017.49760       -31.10528        12.82053
     2017.50034       -27.55126        12.81329
     2017.50308       -25.31725        12.75302
     2017.50581       -26.85523        12.68552
     2017.50855       -29.25621        12.70481
     2017.51128       -28.41305        13.17973
     2017.51403       -26.69817        12.94107
     2017.51676       -26.58115        12.84705
     2017.51950       -26.48113        12.80124
     2017.52224       -24.89711        12.78195
     2017.52498       -29.30709        12.86151
     2017.52772       -27.83707        13.13393
     2017.53045       -29.68005        12.85428
     2017.53319       -32.49403        12.73133
     2017.53593       -26.26101        12.85669
     2017.53867       -23.93899        13.17491
     2017.54141       -19.80997        12.88080
     2017.54414       -22.07495        12.68793
     2017.54688       -26.35893        12.72651
     2017.54962       -25.31991        12.89526
     2017.55236       -21.39189        12.81088
     2017.55509       -19.70087        12.73615
     2017.55783       -22.19485        12.79401
     2017.56057       -28.59083        12.74820
     2017.56331       -28.15481        12.74820
     2017.56605       -24.35980        12.88080
     2017.56878       -28.26478        12.86151
     2017.57152       -21.45876        12.74820
     2017.57426       -24.69774        12.92419
     2017.57700       -30.38972        12.83258
     2017.57974       -30.61770        12.86633
     2017.58247       -26.34468        12.99651
     2017.58521       -25.19566        12.84946
     2017.58795       -32.32064        12.98446
     2017.59069       -25.97862        13.36295
     2017.59342       -26.62060        12.84222
     2017.59616       -22.75158        12.93383
     2017.59890       -24.16056        12.90973
     2017.60164       -23.10154        12.84222
     2017.60438       -25.03852        12.84463
     2017.60711       -25.88650        12.84222
     2017.60985       -27.61748        13.30027
     2017.61259       -25.23746        12.90249
     2017.61533       -21.46444        12.74579
     2017.61807       -22.37442        13.14598
     2017.62080       -24.01440        12.88080
     2017.62354       -23.97138        12.93865
     2017.62628       -18.24636        13.38706
     2017.62902       -14.34935        13.36295
     2017.63175       -25.01333        12.78436
     2017.63449       -23.50031        12.90008
     2017.63723       -28.58329        13.14839
     2017.63997       -25.96927        13.44251
     2017.64271       -18.52925        13.15321
     2017.64544       -19.89123        12.86392
     2017.64818       -24.77621        13.19902
     2017.65092       -26.99019        12.97964
     2017.65366       -24.19517        12.76267
     2017.65639       -23.76315        12.78436
     2017.65913       -20.34713        12.77954
     2017.66187       -21.77611        12.87839
     2017.66461       -19.42809        13.64019
     2017.66735       -19.41907        13.09536
     2017.67008       -20.61105        12.73615
     2017.67282       -22.27603        13.23759
     2017.67556       -26.56201        12.98928
     2017.67830       -18.63599        12.83258
     2017.68104       -16.06397        12.94830
     2017.68377       -14.64095        13.12911
     2017.68651       -16.96193        14.35619
     2017.68925       -18.63891        12.89285
     2017.69199       -19.15289        12.78919
     2017.69472       -18.31888        12.77954
     2017.69746       -20.77986        13.01580
     2017.70020       -19.85384        13.14357
     2017.70294       -18.64282        13.43045
     2017.70568       -24.89480        13.25447
     2017.70841       -16.33878        12.78919
     2017.71115       -19.75576        12.97723
     2017.71389       -20.79974        12.86633
     2017.71663       -17.29072        12.84705
     2017.71937       -20.03170        12.83740
     2017.72210       -20.99868        12.72651
     2017.72484       -20.35666        12.90249
     2017.72758       -16.92764        12.92419
     2017.73032       -20.17662        12.91214
     2017.73305       -20.48560        12.85669
     2017.73579       -18.66058        13.11464
     2017.73853       -17.26156        13.11223
     2017.74127       -20.44254        13.48349
     2017.74401       -16.31152        12.83981
     2017.74674       -21.27450        12.79642
     2017.74948       -25.49548        12.82053
     2017.75222       -22.32546        12.83017
     2017.75496       -15.57044        12.89044
     2017.75770       -20.33742        13.15563
     2017.76043       -22.22941        12.97241
     2017.76317       -20.03539        12.96758
     2017.76591       -14.46837        12.78436
     2017.76865       -15.96035        12.85187
     2017.77138       -19.82533        12.88803
     2017.77412       -22.05531        12.81571
     2017.77686       -22.70529        12.77231
     2017.77960       -21.08327        12.74097
     2017.78234       -17.28225        12.87115
     2017.78507       -11.31923        12.97723
     2017.78781       -15.39921        12.97241
     2017.79055       -18.21019        12.77231
     2017.79329       -16.75417        12.77472
     2017.79603        -6.24015        12.91937
     2017.79876        11.90987        13.19420
     2017.80150       -13.93611        13.19420
     2017.80424        -3.52509        12.83981
     2017.80698         6.63093        12.98446
     2017.80971        -8.12305        13.19179
     2017.81245       -15.74703        12.94830
     2017.81519       -13.95501        12.84222
     2017.81793       -16.49099        12.99410
     2017.82067       -19.15497        13.09053
     2017.82340       -18.68296        12.89526
     2017.82614       -22.30394        12.86874
     2017.82888       -19.97192        12.90731
     2017.83162       -20.76990        12.78195
     2017.83436       -23.57388        12.84222
     2017.83709       -20.37786        13.38706
     2017.83983       -26.45684        12.92178
     2017.84257       -20.38582        12.96517
     2017.84531       -23.09780        12.86874
     2017.84804       -25.20078        12.95312
     2017.85078       -15.35076        13.39188
     2017.85352       -15.80174        13.11705
     2017.85626       -20.12772        13.26411
     2017.85900       -17.08170        13.23759
     2017.86173        -7.51268        13.02785
     2017.86447        -6.69066        12.88562
     2017.86721        -7.89764        12.81571
     2017.86995       -15.74162        12.74820
     2017.87269       -17.67160        12.77954
     2017.87542       -15.85558        12.75061
     2017.87816       -10.08256        12.77231
     2017.88090        -5.26354        12.76267
     2017.88364        -0.13052        12.77713
     2017.88637         2.21349        12.81088
     2017.88911        -7.85749        12.85669
     2017.89185       -12.62647        12.93383
     2017.89459       -15.93545        12.92901
     2017.89733         1.84357        12.82294
     2017.90006         6.67159        12.91937
     2017.90280         5.33161        13.01821
     2017.90554        14.71563        13.15080
     2017.90828         3.00165        13.08812
     2017.91102        11.80467        13.56064
     2017.91375        14.27569        13.52447
     2017.91649        12.51371        13.02062
     2017.91923        15.55173        13.19420
     2017.92197        14.33675        13.15321
     2017.93018       -20.81219        12.86874
     2017.93292       -20.42817        12.75785
     2017.93566       -26.03515        13.16768
     2017.93839       -26.05013        13.00375
     2017.94113       -25.57811        12.92419
     2017.94387       -24.91509        12.94589
     2017.94661       -25.60707        12.83981
     2017.94935       -20.29905        12.85669
     2017.95208       -29.34104        13.33402
     2017.95482       -22.26202        12.96276
     2017.95756       -11.32000        12.96035
     2017.96030        -6.86898        12.96999
     2017.96303        -7.48496        12.92178
     2017.96577        -3.16994        13.32197
     2017.96851        -7.24892        13.05196
     2017.97125       -17.37590        13.13634
     2017.97399       -17.73688        12.92419
     2017.97672       -14.92786        12.98446
     2017.97946       -14.07484        12.87115
     2017.98220       -21.85182        12.95312
     2017.98494       -25.33880        12.88562
     2017.98767       -30.29978        12.81329
     2017.99041       -27.57476        12.75785
     2017.99315       -25.92174        12.77472
     2017.99589       -25.77972        12.79401
     2017.99863       -21.67870        12.83017
     2018.00136       -13.87868        12.92901
     2018.00410        -2.69466        13.46662
     2018.00684       -30.86764        13.72698
     2018.00958       -29.40262        14.61415
     2018.01232       -25.46860        12.87839
     2018.01505       -14.89659        12.85187
     2018.01779       -20.96857        12.99410
     2018.02053       -19.60355        13.21831
     2018.02327       -21.88953        13.13634
     2018.02600       -28.87551        13.22072
     2018.02874       -22.87249        13.12911
     2018.03148       -27.44547        13.12670
     2018.03422       -20.08445        13.46903
     2018.03696       -27.12043        12.90731
     2018.03969       -28.28741        12.78919
     2018.04243       -25.92639        12.82535
     2018.04517       -22.51037        12.81571
     2018.04791       -15.59335        12.80365
     2018.05065       -22.38833        12.89044
     2018.05338       -22.71631        12.79401
     2018.05612       -21.47229        12.65900
     2018.05886       -27.03127        12.75544
     2018.06160       -19.80125        12.77472
     2018.06433       -23.43623        13.08812
     2018.06707       -20.43621        12.99651
     2018.06981       -30.23719        12.88321
     2018.07255       -23.59717        12.91214
     2018.07529       -27.05315        12.94348
     2018.07802       -22.95813        13.03268
     2018.08076        -9.97112        13.05678
     2018.08350       -10.35110        12.96035
     2018.08624        -9.55208        12.86633
     2018.08898        -5.19506        13.00134
     2018.09171        -1.47904        12.99651
     2018.09445        -8.09902        13.17491
     2018.09719       -22.80500        13.38224
     2018.09993       -25.80798        13.01098
     2018.10266        -8.03796        12.99410
     2018.10540        -4.65794        13.36777
     2018.10814        -0.01392        13.14357
     2018.11088       -14.42190        13.27375
     2018.11362       -28.50088        13.10018
     2018.11635       -25.94986        12.96517
     2018.11909       -18.99284        13.35813
     2018.12183       -13.97782        13.48590
     2018.12457       -19.09680        13.13875
     2018.12731       -16.99478        13.11705
     2018.13004        -9.41176        13.07366
     2018.13278       -20.28274        13.00375
     2018.13552       -20.41872        13.04714
     2018.13826       -27.70770        13.09294
     2018.14099       -28.05968        13.08812
     2018.14373       -31.99067        12.98205
     2018.14647       -16.30765        13.80654
     2018.14921       -21.12363        13.27375
     2018.15195        -9.99661        13.03750
     2018.15468       -10.28959        13.13875
     2018.15742        -3.79757        13.22795
     2018.16016       -10.66155        13.03509
     2018.16290       -11.51753        13.21348
     2018.16564       -21.23751        13.18214
     2018.16837       -31.09449        13.10982
     2018.17111       -21.81547        13.09294
     2018.17385       -30.82645        12.99410
     2018.17659       -29.02443        12.86392
     2018.17932       -27.44041        12.85428
     2018.18206       -23.16839        13.12428
     2018.18480       -20.79337        13.25206
     2018.18754       -22.93535        13.09053
     2018.19028       -24.08733        13.07366
     2018.19301       -27.99131        13.08330
     2018.19575       -21.10129        12.93865
     2018.19849       -23.29827        12.97964
     2018.20123       -19.81725        13.20625
     2018.20397       -26.37523        13.01580
     2018.20670       -23.49421        12.98687
     2018.20944       -24.42120        12.87356
     2018.21218       -27.52318        12.93142
     2018.21492       -35.42216        12.88562
     2018.21765       -25.07214        12.80365
     2018.22039       -25.56012        12.80847
     2018.22313       -31.24410        12.81329
     2018.22587       -32.21608        12.75061
     2018.22861       -32.57906        12.80124
     2018.23134       -24.11304        12.83981
     2018.23408       -12.44802        12.89767
     2018.23682       -16.08600        12.89767
     2018.23956       -15.08198        12.78919
     2018.24230       -17.16196        12.78436
     2018.24503       -31.54694        12.74579
     2018.24777       -34.77392        12.88803
     2018.25051       -29.57890        12.81329
     2018.25325       -31.63288        12.91696
     2018.25598       -28.25086        12.77954
     2018.25872       -29.82184        13.10500
     2018.26146       -28.40982        13.16286
     2018.26420       -31.73180        12.85910
     2018.26694       -28.96678        12.94589
     2018.26967       -35.76276        12.85428
     2018.27241       -28.56175        12.84222
     2018.27515       -25.18673        12.79883
     2018.27789       -25.39271        13.26170
     2018.28062       -24.21769        13.40876
     2018.28336       -23.89367        12.95794
     2018.28610       -34.28065        12.79642
     2018.28884       -31.11763        12.73615
     2018.29158       -25.15061        13.11705
     2018.29431       -31.75559        13.07366
     2018.29705       -17.70257        13.01339
     2018.29979        -8.97955        13.62091
     2018.30253        -5.71953        12.85910
     2018.30527       -10.61951        12.95312
     2018.30800       -11.70649        13.20866
     2018.31074        -4.87647        13.29545
     2018.31348       -30.42345        13.04955
     2018.31622       -28.01243        12.94830
     2018.31895       -29.54541        13.30509
     2018.32169       -27.88039        12.90008
     2018.32443       -31.21937        12.81088
     2018.32717       -31.13135        12.89285
     2018.32991       -27.26233        13.16045
     2018.33264       -26.92831        12.84946
     2018.33538       -25.27430        13.19902
     2018.33812       -29.95428        13.20866
     2018.34086       -27.99026        12.82535
     2018.34360       -29.42324        12.89767
     2018.34633       -23.41222        12.80124
     2018.34907       -27.78220        12.73856
     2018.35181       -22.42818        12.77954
     2018.35455       -22.17316        12.73856
     2018.35728       -20.95514        12.76267
     2018.36002       -34.10012        12.74097
     2018.36276       -24.31510        13.14839
     2018.36550       -24.48608        12.93624
     2018.36824       -26.32606        12.64695
     2018.37097       -26.50104        12.67829
     2018.37371       -26.38702        12.63008
     2018.37645       -22.99300        12.91455
     2018.37919       -22.46798        12.70963
     2018.38193       -23.54996        12.66383
     2018.38466       -25.94394        12.67829
     2018.38740       -25.78892        12.68070
     2018.39014       -25.67690        12.68070
     2018.39288       -25.28188        12.80847
     2018.39561       -26.70086        12.68793
     2018.39835       -24.13284        12.69758
     2018.40109       -23.41683        12.76990
     2018.40383       -22.71781        12.62525
     2018.40657       -24.13579        12.79160
     2018.40930       -12.27977        12.86151
     2018.41204       -23.22275        12.65177
     2018.41478       -22.09073        12.77231
     2018.41752       -28.05571        12.61320
     2018.42026       -24.80569        12.64213
     2018.42299       -26.27667        12.69758
     2018.42573       -24.12665        12.68070
     2018.42847       -23.33163        12.61079
     2018.43121       -24.86261        12.56257
     2018.43394       -23.05759        12.61320
     2018.43668       -30.57957        12.62043
     2018.43942       -26.88955        12.73133
     2018.44216       -24.41853        12.67829
     2018.44490       -25.51951        12.74820
     2018.44763       -24.00849        12.64695
     2018.45037       -28.85947        12.61320
     2018.45311       -25.86845        12.65900
     2018.45585       -23.87943        12.88803
     2018.45859       -21.09041        13.04714
     2018.46132       -25.01539        12.77954
     2018.46406       -24.01738        12.61079
     2018.46680       -19.63436        12.81088
     2018.46954       -24.88434        12.70481
     2018.47226       -24.25712        13.14357
     2018.47501       -21.39130        12.64936
     2018.47775       -18.19128        12.86392
     2018.48049       -24.41326        12.69034
     2018.48323       -20.37324        12.71445
     2018.48596       -26.66822        12.66383
     2018.48870       -20.17720        12.72410
     2018.49144       -23.14318        12.74820
     2018.49418       -21.72716        12.77231
     2018.49692       -21.96614        12.76990
     2018.49965       -29.04412        12.55052
     2018.50239       -27.51910        12.75544
     2018.50513       -23.97808        12.66624
     2018.50787       -18.98906        12.61079
     2018.51060       -25.24204        12.64695
     2018.51334       -24.70002        12.66624
     2018.51608       -24.98300        12.62525
     2018.51882       -22.66898        12.70963
     2018.52156       -21.91196        12.70240
     2018.52429       -27.06494        12.77954
     2018.52703       -25.62392        12.67347
     2018.52977       -24.34991        12.58427
     2018.53251       -28.67989        12.67347
     2018.53525       -19.06487        12.74338
     2018.53798       -22.84485        12.82053
     2018.54072       -23.13683        12.76267
     2018.54346       -19.69181        12.68070
     2018.54620       -20.78479        12.60356
     2018.54893       -25.43577        12.64213
     2018.55167       -26.20575        12.73374
     2018.55441       -16.44973        12.77954
     2018.55715       -21.02371        12.76026
     2018.55989       -20.91369        13.15080
     2018.56262       -19.08267        12.73374
     2018.56536       -23.69965        12.74097
     2018.56810       -19.77463        12.79883
     2018.57084       -20.45561        12.78678
     2018.57357       -17.28459        12.86151
     2018.57631       -20.58757        13.15080
     2018.57905       -22.53155        13.40635
     2018.58179       -21.40053        12.98446
     2018.58453       -18.02651        13.05919
     2018.58726       -20.06749        12.60838
     2018.59000       -13.36147        12.62043
     2018.59274       -16.83746        12.69034
     2018.59548       -14.49344        12.75544
     2018.59822        -9.96642        12.96517
     2018.60095       -17.60940        12.61079
     2018.60369       -25.02338        12.69276
     2018.60643       -21.05436        12.69034
     2018.60917       -18.39534        12.67347
     2018.61190       -19.21432        12.92660
     2018.61464       -18.66730        12.71686
     2018.61738       -18.36628        12.71445
     2018.62012       -18.14326        12.64936
     2018.62286       -20.39024        13.12187
     2018.62559       -18.69122        13.24241
     2018.62833       -22.48020        12.89044
     2018.63107       -22.32218        12.65177
     2018.63381       -16.06616        13.21348
     2018.63655       -15.76814        12.66142
     2018.63928       -11.11412        13.73903
     2018.64202       -16.52710        13.31233
     2018.64476       -16.70308        12.85910
     2018.64750       -16.26306        12.80847
     2018.65023        -8.99204        17.79879
     2018.65297       -14.69402        13.07125
     2018.65571       -22.27900        12.83258
     2018.65845       -16.79299        12.74097
     2018.66119       -14.93797        12.75061
     2018.66392       -18.08395        12.93142
     2018.66666       -15.49893        12.70963
     2018.66940       -19.44891        12.84705
     2018.67214       -19.16889        12.70963
     2018.67488       -18.67487        12.71445
     2018.67761       -15.45385        12.71927
     2018.68035       -15.98683        12.94348
     2018.68309       -21.83981        13.03268
     2018.68583       -22.25479        12.82053
     2018.68856       -17.35177        12.78195
     2018.69130       -14.59075        12.79401
     2018.69404       -15.05673        13.28099
     2018.69678       -16.81871        12.76508
     2018.69952       -18.45569        12.80124
     2018.70225       -19.69667        13.03509
     2018.70499       -22.23665        12.70963
     2018.70773       -20.48463        12.70963
     2018.71047       -18.86761        12.75544
     2018.71321       -21.12859        12.67829
     2018.71594       -20.70757        12.76026
     2018.71868       -22.89055        12.68552
     2018.72142       -19.43754        12.70481
     2018.72416       -21.97652        12.73615
     2018.72689       -21.16650        12.82294
     2018.72963       -24.31848        12.77231
     2018.73237       -26.52246        12.73856
     2018.73511       -25.64044        12.71686
     2018.73785       -20.57442        12.77472
     2018.74058       -25.14440        12.76508
     2018.74332       -21.37738        12.75785
     2018.74606       -19.84836        12.76026
     2018.74880       -20.60834        12.73856
     2018.75154       -21.59732        12.78195
     2018.75427       -13.41330        12.80365
     2018.75701       -16.39828        13.11464
     2018.75975       -18.93026        12.83740
     2018.76249       -17.70124        12.78436
     2018.76522       -19.30322        12.87597
     2018.76796       -15.50920        12.98205
     2018.77070       -17.51918        12.76749
     2018.77344       -18.51116        12.82053
     2018.77618       -15.53614        12.79642
     2018.77891       -14.17412        12.68311
     2018.78165       -20.25510        13.10500
     2018.78439       -12.00909        12.87597
     2018.78713       -16.29507        12.85428
     2018.78987       -19.34705        13.12670
     2018.79260       -16.34803        13.00857
     2018.79534        -9.47001        12.76508
     2018.79808       -24.56299        12.97241
     2018.80082       -22.13997        12.93624
     2018.80355       -20.07695        12.90490
     2018.80629       -13.52993        13.30027
     2018.80903       -19.30991        13.10982
     2018.81177       -15.19789        13.52206
     2018.81451       -13.11187        12.94830
     2018.81724       -16.64785        13.00375
     2018.81998       -15.66083        12.85669
     2018.82272       -12.83481        12.79883
     2018.82546       -10.85979        12.82535
     2018.82820       -13.44477        12.84705
     2018.83093       -14.44275        12.79160
     2018.83367       -12.08273        12.78195
     2018.83641       -14.18971        12.74820
     2018.83915       -12.34769        12.83017
     2018.84188       -17.92167        12.81812
     2018.84462       -15.68165        12.95071
     2018.84736       -20.85363        12.73133
     2018.85010       -16.77262        12.85187
     2018.85284        -7.53760        12.93142
     2018.85557       -24.33958        12.95071
     2018.85831       -21.49956        12.83740
     2018.86105       -19.28354        12.80124
     2018.86379       -14.66052        13.03750
     2018.86653       -17.91650        12.85428
     2018.86926       -20.42048        12.86633
     2018.87200       -17.56146        12.80606
     2018.87474       -19.92644        12.70481
     2018.87748       -22.60042        13.06643
     2018.88021       -18.93040        12.93383
     2018.88295       -14.19138        13.04955
     2018.88569       -20.22836        13.02303
     2018.88843       -15.01134        13.02785
     2018.89117       -19.13139        12.92901
     2018.89390       -12.16030        12.97241
     2018.89664        -7.20428        13.10741
     2018.89938         0.74574        13.14598
     2018.90212       -16.07024        13.13393
     2018.90485       -13.74222        12.98205
     2018.90759       -17.44520        12.95312
     2018.91033       -14.89618        12.93142
     2018.91307        -9.27416        13.36536
     2018.91581        -3.53615        13.03026
     2018.91854        -7.18813        13.01821
     2018.92128       -15.11311        13.01821
     2018.92402       -17.51509        12.89526
     2018.92676       -17.46807        12.97482
     2018.92950       -13.02905        13.02303
     2018.93223       -14.80503        13.16527
     2018.93497       -16.66201        13.08330
     2018.93771        -0.99899        13.02785
     2018.94045         3.42903        13.05437
     2018.94318         6.80605        13.18938
     2018.94592        -2.83393        13.30750
     2018.94866        11.80109        13.30991
     2018.95140        22.67511        13.36777
     2018.95414        26.76613        13.36295
     2018.96235        13.51819        15.29158
     2018.96509        37.82521        15.11800
     2018.96783        22.58823        15.47721
     2018.97056        33.77825        15.72552
     2018.97330        34.35527        15.65560
     2018.97604        29.38729        15.26506
     2018.97878        14.09930        15.45069
     2018.98151        20.32532        15.16139
     2018.98425        45.68334        15.70864
     2018.98699        21.49436        15.17827
     2018.98973        24.45338        15.44104
     2018.99247         7.32440        15.44345
     2018.99520        -1.41958        15.58569
     2018.99794        -7.06656        16.04856
     2019.00068        -8.53554        15.37354
     2019.00342       -24.07752        13.22072
     2019.00616       -23.03850        12.94589
     2019.00889       -17.71848        13.00857
     2019.01163       -20.82346        12.93383
     2019.01437       -15.97744        12.96276
     2019.01711       -19.63642        12.94589
     2019.01984       -27.99740        12.90249
     2019.02258       -21.69138        12.94589
     2019.02532       -19.28036        13.03268
     2019.02806        -0.39534        13.32679
     2019.03080         5.96668        13.26893
     2019.03353       -21.26730        12.87356
     2019.03627       -32.72828        12.83017
     2019.03901       -21.51526        12.90008
     2019.04175       -23.67025        12.74338
     2019.04449       -21.24723        12.76990
     2019.04722       -23.04121        13.14116
     2019.04996       -21.48319        13.07366
     2019.05270       -19.02817        13.30027
     2019.05544       -17.00215        13.07366
     2019.05817        -2.90613        13.40152
     2019.06091         1.03789        13.43528
     2019.06365        13.28191        13.92707
     2019.06639        12.31393        13.84752
     2019.06913       -30.45005        13.26170
     2019.07186       -32.92103        13.14357
     2019.07460       -28.68801        12.79160
     2019.07734       -23.28899        12.78919
     2019.08008       -10.82897        12.86874
     2019.08282        -1.21195        13.48831
     2019.08555        -1.13493        13.01580
     2019.08829         1.01809        13.00375
     2019.09103         4.48711        12.94589
     2019.09377        15.45713        12.98687
     2019.09650        27.36115        13.14116
     2019.09924        21.41817        12.98687
     2019.10198         7.91919        13.15321
     2019.10472         9.31421        13.15563
     2019.10746         7.60622        12.99169
     2019.11019         9.68424        12.90731
     2019.11293        12.37226        13.14839
     2019.11567         9.35228        13.58957
     2019.11841        17.49930        12.89526
     2019.12115        16.96132        13.20384
     2019.12388        15.22334        13.17973
     2019.12662        15.10136        12.92660
     2019.12936        12.97738        12.89044
     2019.13210         6.68040        12.92419
     2019.13483         0.60542        12.86633
     2019.13757         1.01244        12.87597
     2019.14031         2.71946        12.92419
     2019.14305         5.49448        12.93383
     2019.14579        -2.04850        12.97241
     2019.14852        -0.21348        12.92901
     2019.15126        -3.95446        12.95553
     2019.15400       -18.23944        13.04232
     2019.15674       -27.68142        12.92901
     2019.15948       -23.50840        12.87839
     2019.16221       -25.99138        13.11946
     2019.16495       -26.09636        12.90008
     2019.16769       -27.21534        12.94830
     2019.17043       -31.80833        12.79883
     2019.17316       -26.61531        12.81812
     2019.17590       -28.68929        12.80365
     2019.17864       -24.49627        12.75785
     2019.18138       -23.03925        12.73856
     2019.18412       -35.13823        12.74820
     2019.18685       -25.46821        12.84946
     2019.18959       -15.43119        12.78436
     2019.19233       -25.69417        12.82776
     2019.19507       -24.33215        12.77472
     2019.19780       -16.97313        12.87115
     2019.20054       -10.96911        13.26411
     2019.20328         4.95591        13.08812
     2019.20602       -29.12007        12.77954
     2019.20876       -33.46805        12.81088
     2019.21149       -34.74003        12.70722
     2019.21423       -29.54501        12.77713
     2019.21697       -26.89599        12.79160
     2019.21971       -28.71297        13.25447
     2019.22245       -31.85395        12.76267
     2019.22518       -27.46493        12.72410
     2019.22792       -27.82091        12.71927
     2019.23066       -32.71389        12.73856
     2019.23340       -32.09087        12.76267
     2019.23613       -29.53486        12.80365
     2019.23887       -27.49084        12.77231
     2019.24161       -28.96682        13.27375
     2019.24435       -34.34480        13.07366
     2019.24709       -29.67278        12.99651
     2019.24982       -26.54476        12.78919
     2019.25256       -22.04174        13.13393
     2019.25530       -26.93772        12.82535
     2019.25804       -16.15770        12.86633
     2019.26078       -20.87768        12.83981
     2019.26351       -19.87266        13.04714
     2019.26625       -22.88964        12.95071
     2019.26899       -17.04962        13.08330
     2019.27173       -12.43060        13.46662
     2019.27446       -22.94158        12.93624
     2019.27720       -21.62056        13.27857
     2019.27994       -20.16754        12.81812
     2019.28268       -21.11252        12.79883
     2019.28542       -18.33550        12.86633
     2019.28815       -14.96648        12.86633
     2019.29089        -8.18846        12.96758
     2019.29363         9.31756        12.91696
     2019.29911        15.90459        12.93624
     2019.30184        15.26861        13.09777
     2019.30458        -4.82037        13.44251
     2019.30732       -10.35935        13.18214
     2019.31006        -8.23033        13.51965
     2019.31279       -12.38631        13.54135
     2019.31553         8.26271        13.31233
     2019.31827        13.70673        13.24000
     2019.32101       -28.92725        12.83740
     2019.32375       -36.62523        12.74579
     2019.32648       -27.64021        12.77472
     2019.32922       -25.71319        12.77713
     2019.33196       -23.76917        13.07607
     2019.33470       -25.82815        13.07848
     2019.33744       -24.45513        12.74097
     2019.34017       -30.28411        12.81329
     2019.34291       -26.25609        12.74579
     2019.34565       -32.59707        12.95071
     2019.34839       -31.34805        12.92901
     2019.35112       -28.14203        12.70240
     2019.35386       -27.98701        12.68070
     2019.35660       -27.18499        12.76026
     2019.35934       -29.79597        12.76508
     2019.36208       -27.43295        12.76267
     2019.36481       -29.90294        13.06884
     2019.36755       -30.05992        12.73374
     2019.37029       -30.56890        12.74338
     2019.37303       -24.44788        12.80606
     2019.37577       -26.81086        12.94107
     2019.37850       -26.11684        12.77954
     2019.38124       -24.97782        12.64454
     2019.38398       -23.97480        12.64936
     2019.38672       -23.70178        12.71686
     2019.38945       -31.80976        12.81329
     2019.39219       -29.65474        12.72410
     2019.39493       -31.08172        12.64936
     2019.39767       -24.65370        12.68070
     2019.40041       -21.56668        12.72168
     2019.40314       -26.56866        12.95071
     2019.40588       -22.44664        12.83499
     2019.40862       -22.11862        12.77472
     2019.41136       -24.76560        12.82294
     2019.41410       -21.05158        12.67588
     2019.41683       -22.22956        12.80606
     2019.41957       -21.93554        12.82053
     2019.42231       -25.55152        12.79883
     2019.42505       -25.20650        12.67588
     2019.42778       -22.78049        13.04955
     2019.43052       -21.49247        12.77472
     2019.43326       -28.01745        12.77231
     2019.43600       -27.24343        12.86151
     2019.43874       -30.25941        12.92419
     2019.44147       -34.17939        13.35813
     2019.44421       -31.99837        12.91937
     2019.44695       -28.90735        12.87839
     2019.44969       -25.46233        12.96999
     2019.45243       -27.64031        12.92419
     2019.45516       -28.38129        12.89044
     2019.45790       -25.76027        12.87839
     2019.46064       -29.60725        12.80606
     2019.46338       -25.31023        13.30268
     2019.46611       -20.66421        13.29304
     2019.46885       -23.95819        13.18697
     2019.47159       -18.52017        12.83740
     2019.47433       -26.76315        12.77231
     2019.47707       -23.25813        12.87597
     2019.47980       -23.01211        12.90973
     2019.48254       -22.63509        12.89285
     2019.48528       -22.72907        12.86392
     2019.48802       -28.84805        12.98928
     2019.49076       -25.89104        12.75544
     2019.49349       -22.82502        12.81329
     2019.49623       -21.02200        12.77954
     2019.49897       -24.87598        12.84222
     2019.50171       -23.07696        12.90490
     2019.50444       -25.11894        12.74579
     2019.50718       -30.24292        12.84222
     2019.50992       -24.64790        12.87356
     2019.51266       -20.62788        12.89526
     2019.51540       -21.42286        12.68793
     2019.51813       -22.27684        12.87839
     2019.52087       -20.53282        12.89285
     2019.52361       -18.36480        12.90490
     2019.52635       -23.14878        12.80124
     2019.52908       -18.11876        13.20143
     2019.53182       -24.62074        12.96758
     2019.53456       -24.29572        12.97241
     2019.53730       -20.89370        12.99892
     2019.54004       -15.13468        13.11223
     2019.54277       -15.70566        13.04714
     2019.54551       -21.38064        13.35331
     2019.54825       -20.98662        12.71686
     2019.55099       -19.10060        12.69517
     2019.55373       -16.15058        12.89526
     2019.55646       -11.57057        13.12911
     2019.55920       -21.76355        13.26893
     2019.56194       -20.70753        12.75302
     2019.56468       -24.93451        13.04955
     2019.56741       -23.49549        12.78678
     2019.57015       -24.89147        12.83499
     2019.57289       -23.25545        12.83017
     2019.57563       -17.33943        12.66624
     2019.57837       -20.82641        12.83499
     2019.58110       -16.76039        12.69517
     2019.58384       -17.92437        13.06402
     2019.58658       -22.43335        12.67106
     2019.58932       -15.11733        12.68311
     2019.59206       -14.92431        13.64742
     2019.59479       -16.35029        12.74820
     2019.59753       -14.13427        13.35813
     2019.60027       -17.60425        13.23518
     2019.60301       -17.18923        12.67347
     2019.60574       -12.84321        13.34126
     2019.60848       -17.97519        13.39670
     2019.61122       -19.49617        12.73615
     2019.61396       -22.20615        12.84463
     2019.61670       -15.75213        12.71927
     2019.61943       -21.01212        12.78919
     2019.62217       -17.70310        12.92419
     2019.62491       -15.71108        12.83981
     2019.62765       -18.04106        12.67829
     2019.63039       -14.11104        12.69999
     2019.63312       -16.27602        12.72892
     2019.63586       -12.51300        13.24241
     2019.63860       -17.62998        12.71445
     2019.64134       -21.57196        12.96999
     2019.64407       -23.68794        12.78195
     2019.64681       -15.82592        12.70240
     2019.64955       -19.52790        12.78919
     2019.65229       -17.45488        12.93383
     2019.65503       -22.65386        12.87115
     2019.65776       -19.92784        12.97723
     2019.66050       -16.16682        12.81571
     2019.66324       -20.84780        12.68552
     2019.66598       -27.08078        13.01580
     2019.66872       -16.16076        12.81571
     2019.67145       -23.40274        12.80606
     2019.67419       -19.80972        12.70722
     2019.67693       -23.40370        12.92419
     2019.67967       -23.05768        12.96758
     2019.68240       -21.26366        12.64454
     2019.68514       -18.34365        12.72651
     2019.68788       -18.13863        12.86392
     2019.69062       -21.11161        12.78919
     2019.69336       -17.01759        12.62043
     2019.69609       -18.34357        12.72892
     2019.69883       -25.56955        12.81088
     2019.70157       -17.34953        12.71927
     2019.70431       -16.07351        12.66624
     2019.70705       -22.01249        12.71686
     2019.70978       -19.23947        12.67829
     2019.71252       -23.72645        12.69517
     2019.71526       -17.38243        12.85428
     2019.71800       -13.25641        13.29304
     2019.72073       -18.54539        13.62091
     2019.72347       -18.56337        12.74338
     2019.72621       -15.63935        12.90490
     2019.72895       -17.77633        13.04232
     2019.73169       -12.10931        12.71686
     2019.73442        -7.05229        12.74579
     2019.73716       -11.83227        12.69276
     2019.73990       -15.01825        13.31715
     2019.74264       -14.86723        13.00375
     2019.74538       -17.60821        13.00857
     2019.74811       -15.57220        13.02544
     2019.75085       -16.82718        12.95312
     2019.75359       -12.44016        13.27857
     2019.75633       -14.26414        12.86874
     2019.75906       -20.27812        12.68793
     2019.76180       -14.89610        12.76508
     2019.76454       -11.52108        12.86151
     2019.76728       -15.99906        12.95071
     2019.77002       -19.80004        12.97723
     2019.77275       -16.93102        13.06643
     2019.77549       -22.11700        13.00616
     2019.77823       -14.48698        13.07125
     2019.78097       -18.70296        12.92419
     2019.78371       -13.90294        12.88803
     2019.78644       -12.71392        13.04232
     2019.78918       -13.81390        12.84222
     2019.79192        -3.73588        12.93624
     2019.79466        -8.67686        12.93865
     2019.79739        -5.90484        12.93624
     2019.80013        -8.91582        12.85428
     2019.80287       -12.46980        12.73856
     2019.80561        -9.43078        12.83499
     2019.80835       -17.43876        13.00857
     2019.81108       -19.30474        13.10982
     2019.81382       -14.78273        12.99651
     2019.81656       -19.41271        12.79160
     2019.81930       -12.99569        12.71927
     2019.82203       -12.89967        13.03026
     2019.82477       -17.83265        13.03268
     2019.82751       -12.41263        13.00857
     2019.83025       -14.89661        13.08571
     2019.83299       -23.65559        13.02303
     2019.83572       -17.78157        12.87597
     2019.83846       -12.62855        12.93865
     2019.84120       -17.77753        12.99892
     2019.84394       -11.19751        13.34849
     2019.84668       -19.35549        12.86633
     2019.84941       -17.28147        12.70722
     2019.85215       -14.71445        12.89767
     2019.85489       -16.37943        12.99892
     2019.85763       -18.00341        13.20143
     2019.86036       -10.88839        13.00134
     2019.86310       -20.41437        12.81088
     2019.86584       -11.75335        13.06402
     2019.86858        -9.72833        12.99169
     2019.87132       -10.44031        13.39429
     2019.87405        -9.16829        12.92660
     2019.87679        -7.32128        13.37983
     2019.87953        -9.11526        12.82294
     2019.88227        -7.99524        12.89285
     2019.88501        -6.80822        12.89285
     2019.88774        -4.82520        13.21107
     2019.89048         1.87882        13.07125
     2019.89322        -7.38716        12.94107
     2019.89596       -15.47614        13.02785
     2019.89869       -13.92212        12.98687
     2019.90143       -10.36610        12.90731
     2019.90417       -17.74308        12.96035
     2019.90691       -13.56206        12.94348
     2019.90965       -14.69004        12.94348
     2019.91238       -12.50002        12.90249
     2019.91512        -3.42300        12.87597
     2019.91786         8.00302        13.02303
     2019.92060         2.17404        12.97482
     2019.92607         0.11708        13.03268
     2019.92881        -5.10490        12.97964
     2019.93155        -1.90988        13.09777
     2019.93429        -4.02086        13.26170
     2019.93702         0.32316        13.09536
     2019.93976       -10.93182        12.95553
     2019.94250        -2.21481        13.00616
     2019.94524         1.15721        12.93142
     2019.94798        -3.92177        13.17973
     2019.95071        -6.88675        13.56064
     2019.95345        -7.95373        13.10982
     2019.95619         0.39129        13.33161
     2019.95893         1.34831        13.46179
     2019.96167         9.57033        13.64501
     2019.96440        16.14235        14.56593
     2019.96714        18.02437        14.59968
     2019.96988        17.38839        14.76844
     2019.97262        -1.81459        14.99023
     2019.97535         0.96843        15.21202
     2019.97809        -1.61455        14.74192
     2019.98083        14.95847        14.63343
     2019.98357        22.02149        14.88415
     2019.98631        35.44651        14.55388
     2019.98904        36.85953        14.66959
     2019.99178        50.19255        14.74433
     2019.99452        31.32657        14.71058
     2019.99726        22.50959        14.34896
     2020.00000        -7.80739        13.26170
     2020.00273        -7.69937        13.32438
     2020.00547        -7.45836        13.62814
     2020.00821        -9.01734        13.61608
     2020.01095        -2.24732        13.43045
     2020.01368       -10.66830        13.43528
     2020.01642       -15.56328        13.47867
     2020.01916       -17.54526        13.25447
     2020.02190       -21.16624        13.62814
     2020.02464        -6.07222        13.53653
     2020.02737        -3.09420        13.12187
     2020.03011       -18.10518        13.34608
     2020.03285       -23.29916        13.26893
     2020.03559       -24.21214        13.11223
     2020.03833       -18.65012        13.13875
     2020.04106       -24.40010        13.49554
     2020.04380       -25.62308        13.41840
     2020.04654       -23.32906        13.03026
     2020.04928       -13.70504        13.04955
     2020.05201         3.82698        13.17250
     2020.05475         4.79200        13.80171
     2020.05749         3.18902        13.58474
     2020.06023        12.08504        14.15610
     2020.06297        12.36106        14.19949
     2020.06570         8.72508        14.39236
     2020.06844         5.78309        14.20914
     2020.07118         4.63111        14.11512
     2020.07392         6.44113        14.14646
     2020.07666        18.63015        14.25012
     2020.07939        20.18917        14.32244
     2020.08213        15.34919        14.49602
     2020.08487        14.05221        14.12476
     2020.08761        18.25823        14.17780
     2020.09034        16.21325        13.90779
     2020.09308        23.56827        14.19949
     2020.09582        35.62229        13.99940
     2020.09856        43.92031        14.21396
     2020.10130        34.68733        13.88609
     2020.10403        34.21535        13.81618
     2020.10677        23.36737        13.72698
     2020.10951         6.38739        13.98493
     2020.11225        31.20541        14.16574
     2020.11498        35.88043        14.26699
     2020.11772        18.43245        14.30557
     2020.12046        21.78347        14.43093
     2020.12320        29.83549        14.46468
     2020.12594        29.04651        14.52736
     2020.12867        33.04453        14.29592
     2020.13141        29.39055        14.19226
     2020.13415        47.87256        14.18503
     2020.13689        49.95458        14.48155
     2020.13963        48.45860        14.45504
     2020.14784        45.02366        13.91020
     2020.15058        54.71068        14.65513
     2020.15331        31.93970        14.50566
     2020.15605        38.02472        14.86246
     2020.15879        51.19074        14.80219
     2020.16153        42.39576        14.66236
     2020.16427        48.75078        14.83112
     2020.19712        46.98801        14.57557
     2020.19986        51.30703        14.93478
     2020.20260        49.89505        14.67442
     2020.20533        51.09607        15.22890
     2020.21355        49.87113        16.00758
     2020.21629        46.38415        15.37595
     2020.21902        30.38917        14.76362
     2020.22176        27.11019        14.61656
     2020.22450        34.49021        14.77567
     2020.22724        26.34223        14.32485
     2020.22997        10.07525        14.46227
     2020.23271        -9.15473        14.34896
     2020.23545        -7.82971        14.51048
     2020.23819        -5.26969        14.23083
     2020.24093         2.43733        13.98252
     2020.24366         7.04735        14.06208
     2020.24640        -7.49063        14.33209
     2020.28199       -22.84338        14.22119
     2020.28473       -37.39536        13.40635
     2020.28747       -35.97334        12.95553
     2020.29021       -31.18132        12.94348
     2020.29295       -32.36930        13.00134
     2020.29568       -27.61628        13.02303
     2020.29842       -23.33426        12.97964
     2020.30116       -28.38924        13.06643
     2020.30390       -28.03022        12.98928
     2020.30663       -27.90220        12.99169
     2020.30937       -30.27518        13.30027
     2020.31211       -27.52516        13.35572
     2020.31485       -26.42714        12.96758
     2020.31759       -17.61812        12.80606
     2020.32032       -15.36710        12.76749
     2020.32306        -9.64208        12.90008
     2020.32580       -15.48207        13.07366
     2020.32854       -17.42005        12.94107
     2020.33128       -28.17003        12.90973
     2020.33401       -31.24301        12.81329
     2020.33675       -30.73799        12.81571
     2020.33949       -28.08997        12.88562
     2020.34223       -32.58995        12.98687
     2020.34496       -32.38693        12.80847
     2020.34770       -33.66491        12.66624
     2020.35044       -27.26389        12.99169
     2020.35318       -29.34387        13.12911
     2020.35592       -32.07985        13.20384
     2020.35865       -26.12683        12.83499
     2020.36139       -26.03781        12.78678
     2020.36413       -26.16779        12.80365
     2020.36687       -26.21477        12.94348
     2020.36961       -28.20775        13.10500
     2020.37234       -30.42073        12.83981
     2020.37508       -27.99171        12.75302
     2020.37782       -27.86769        12.81088
     2020.38056       -34.20967        12.76749
     2020.38329       -28.83965        12.80124
     2020.38603       -29.55863        12.80606
     2020.38877       -29.36561        13.00857
     2020.39151       -32.11960        12.76026
     2020.39425       -30.40558        12.84705
     2020.39698       -30.10056        12.69276
     2020.39972       -31.84054        12.65177
     2020.40246       -28.21352        12.68793
     2020.40520       -27.50450        13.02303
     2020.40794       -27.66248        12.94589
     2020.41067       -30.63946        12.73374
     2020.41341       -31.46544        12.67588
     2020.41615       -35.37542        12.68311
     2020.41889       -28.61040        12.73374
     2020.42162       -30.26538        12.68311
     2020.42436       -24.51136        13.20625
     2020.42710       -25.84734        13.13634
     2020.42984       -27.95632        12.85669
     2020.43258       -28.75730        12.89526
     2020.43531       -31.81728        12.81088
     2020.43805       -25.27626        12.95312
     2020.44079       -32.82024        12.93624
     2020.44353       -28.69622        12.93383
     2020.44626       -32.97820        12.71204
     2020.44900       -30.07818        12.67829
     2020.45174       -26.06716        12.76026
     2020.45448       -27.45615        12.84222
     2020.45722       -28.60413        12.86151
     2020.45995       -25.75911        12.75785
     2020.46269       -30.80309        12.71445
     2020.46543       -28.78007        12.65177
     2020.46817       -24.72405        12.77954
     2020.47091       -24.16203        12.90249
     2020.47364       -27.70201        13.06643
     2020.47638       -29.72799        12.74820
     2020.47912       -30.11997        12.67347
     2020.48186       -26.58295        12.77472
     2020.48459       -33.88593        13.12428
     2020.48733       -29.18691        13.04232
     2020.49007       -29.81989        13.00134
     2020.49281       -26.31987        12.91937
     2020.49555       -27.52885        12.83499
     2020.49828       -29.60983        12.70722
     2020.50102       -21.67481        12.91696
     2020.50376       -27.25979        12.88321
     2020.50650       -26.98677        12.73856
     2020.50924       -30.75575        12.65900
     2020.51197       -27.55473        12.69276
     2020.51471       -26.14371        12.83017
     2020.51745       -26.01970        12.85187
     2020.52019       -23.12868        13.26652
     2020.52292       -22.32966        12.91455
     2020.52566       -24.52964        12.96999
     2020.52840       -21.09462        12.82776
     2020.53114       -24.26160        13.04232
     2020.53388       -27.23558        13.17250
     2020.53661       -20.24556        13.21348
     2020.53935       -27.30754        12.81329
     2020.54209       -21.91252        12.89767
     2020.54483       -28.78150        13.03750
     2020.54757       -22.25455        13.09536
     2020.55030       -23.77946        13.51965
     2020.55304       -22.77044        12.89767
     2020.55578       -22.63942        12.85187
     2020.55852       -21.05840        12.87839
     2020.56125       -22.69738        13.19420
     2020.56399       -26.09636        13.21348
     2020.56673       -29.01234        13.05437
     2020.56947       -21.32232        12.89767
     2020.57221       -20.11330        13.37260
     2020.57494       -23.89728        12.98687
     2020.57768       -13.70626        13.12911
     2020.58042       -18.82724        13.17009
     2020.58316       -23.85023        13.48108
     2020.58590       -26.24521        13.04955
     2020.58863       -22.33219        13.06160
     2020.59137       -20.59817        13.39429
     2020.59411       -17.42115        13.21831
     2020.59685       -21.30813        13.30750
     2020.59958       -21.08511        13.32197
     2020.60232       -20.82509        13.01821
     2020.60506       -18.83507        13.28099
     2020.60780       -18.79205        13.14839
     2020.61054       -14.25803        13.02303
     2020.61327       -13.79401        12.98928
     2020.61601       -14.30999        12.95794
     2020.61875       -21.01397        13.10259
     2020.62149       -22.73495        13.16527
     2020.62423       -17.07293        13.09053
     2020.62696       -24.21291        13.00616
     2020.62970       -23.21489        12.91214
     2020.63244       -19.55287        12.93142
     2020.63518        -9.10785        13.55340
     2020.63791       -18.68083        13.17250
     2020.64065       -21.24281        12.90731
     2020.64339       -25.67979        12.87597
     2020.64613       -19.86777        12.83981
     2020.64887       -18.94876        12.90973
     2020.65160       -17.20374        13.02544
     2020.65434       -22.71072        12.83258
     2020.65708       -27.36470        13.10259
     2020.65982       -24.49768        12.86392
     2020.66256       -21.42066        12.90008
     2020.66529       -22.95464        13.39429
     2020.66803       -18.86562        12.89285
     2020.67077       -22.89660        12.95794
     2020.67351       -18.02558        12.88321
     2020.67624       -17.96056        12.91214
     2020.67898       -21.75654        12.94589
     2020.68172       -17.58252        13.03026
     2020.68446       -21.32750        13.07607
     2020.68720       -20.05448        13.07125
     2020.68993       -19.20346        12.88080
     2020.69267       -17.66444        13.17491
     2020.69541       -10.80142        13.53412
     2020.69815       -21.28540        13.07607
     2020.70089       -18.49538        12.98446
     2020.70362       -18.09236        12.82294
     2020.70636       -22.56034        13.52206
     2020.70910       -26.01432        13.51965
     2020.71184       -18.48231        13.22072
     2020.71457       -18.46229        13.36536
     2020.71731       -15.59027        13.17973
     2020.72005       -18.75125        13.26411
     2020.72279       -21.83223        12.95794
     2020.72553       -14.29721        13.14116
     2020.72826       -15.54719        13.30509
     2020.73100       -14.13317        13.03268
     2020.73374       -16.27215        12.90490
     2020.73648       -12.53113        12.95312
     2020.73921       -19.42511        13.10982
     2020.74195       -17.63809        13.27375
     2020.74469       -17.05007        13.28581
     2020.74743       -14.37505        12.92901
     2020.75017       -12.10603        13.01821
     2020.75290       -19.59601        13.32920
     2020.75564       -17.74099        12.82053
     2020.75838       -18.74997        12.69276
     2020.76112       -13.88295        12.83740
     2020.76386       -18.33093        12.74579
     2020.76659       -16.64091        12.71686
     2020.76933       -13.07889        12.89526
     2020.77207       -24.85687        12.73374
     2020.77481       -12.21686        12.71204
     2020.77754       -13.52184        12.80124
     2020.78028       -12.73282        12.78436
     2020.78302       -18.29180        12.76026
     2020.78576       -17.53678        12.69758
     2020.78850       -17.07976        12.70722
     2020.79123       -15.92174        12.77713
     2020.79397       -19.65872        12.82294
     2020.79671       -14.33070        12.78919
     2020.79945       -15.42268        12.71927
     2020.80219       -16.06666        13.11223
     2020.80492       -16.94464        12.77231
     2020.80766       -17.36762        13.04232
     2020.81040       -15.94960        13.01580
     2020.81314       -22.07158        12.76749
     2020.81587       -18.29156        12.79642
     2020.81861        15.77646        13.67394
     2020.82135       -20.15552        12.90249
     2020.82409       -12.25650        12.87356
     2020.82683       -19.20548        12.95553
     2020.82956       -14.28346        12.99892
     2020.83230        -2.16944        12.96517
     2020.83504       -13.31142        13.02785
     2020.83778        -7.90540        13.01821
     2020.84052       -11.99839        12.75302
     2020.84325       -13.65237        13.12428
     2020.84599       -10.52035        13.17009
     2020.84873        -3.68733        12.82294
     2020.85147       -11.35731        12.84463
     2020.85420       -11.65129        12.87597
     2020.85694        -0.13627        13.00616
     2020.85968         4.02075        12.84705
     2020.86242        -2.27223        12.94830
     2020.86516         8.06479        13.46179
     2020.86789        22.59481        13.47867
     2020.87063        27.25183        13.09294
     2020.87337        22.76585        13.02544
     2020.87611        19.49387        13.32920
     2020.87885        16.47189        13.40635
     2020.88158        20.25591        13.31956
     2020.88432        14.67693        13.06643
     2020.88706        13.60195        13.65466
     2020.88980        10.91397        13.40394
     2020.89253        15.11899        13.32920
     2020.91170       -24.30188        13.57992
     2020.91444       -19.96186        13.33884
     2020.91718       -14.71884        13.54376
     2020.91991       -22.26582        13.18455
     2020.92265       -23.94180        13.06160
     2020.92539       -22.29678        13.08089
     2020.92813       -23.50576        12.89285
     2020.93086       -20.98974        13.07607
     2020.93360       -19.64172        13.03750
     2020.93634       -12.05770        12.98928
     2020.93908       -13.51868        13.06643
     2020.94182        -8.66566        12.90249
     2020.94455        -5.92664        13.04714
     2020.94729        -7.96962        13.12911
     2020.95551       -11.22956        12.92901
     2020.95824        -2.04854        12.99892
     2020.96098         7.27548        13.10500
     2020.96372        15.96350        13.28340
     2020.96646         9.67752        13.40394
     2020.96919        11.16753        13.56546
     2020.97193         6.92555        13.13152
     2020.97467         4.14657        13.31474
     2020.97741         5.19059        13.63778
     2020.98015        14.21561        13.83305
     2020.98288        20.93863        13.60403
     2020.98562        29.24965        13.40635
     2020.98836        32.60467        13.29063
     2020.99110        24.52169        13.27616
     2020.99384        25.71271        13.27616
     2020.99657        27.42273        13.38465
     2020.99931        28.81175        13.40635
     2021.00205        28.78577        13.63537
     2021.00479        49.28779        13.90297
     2021.00752        29.96681        13.76314
     2021.01026        35.41483        13.72457
     2021.01300        45.98685        14.00904
     2021.01574        33.12087        13.96806
     2021.01848        36.59789        14.71781
     2021.02121        39.62291        14.30075
     2021.02395        50.42193        14.19226
     2021.02669        42.92495        14.03797
     2021.02943        45.64297        14.65995
     2021.03216        49.59498        14.80701
     2021.03490        57.13900        15.12523
     2021.03764        59.14902        15.86775
     2021.04585        44.42008        15.50372
     2021.05133        44.80712        18.24719
     2021.05407        32.12614        19.34892
     2021.05681        33.93716        17.97477
     2021.05954        33.18018        16.75010
     2021.06228        59.41720        17.84218
     2021.06502        37.77922        17.61798
     2021.06776        45.98424        17.30217
     2021.07049        49.16526        16.50661
     2021.07323        40.24928        16.65849
     2021.07597        34.79230        17.00805
     2021.07871        35.00332        17.60834
     2021.08145        12.97734        17.34797
     2021.08418         2.17736        17.03698
     2021.08692         4.73838        17.17681
     2021.08966         6.01440        17.26842
     2021.09240        -8.81058        17.23949
     2021.09787       -19.46655        16.62956
     2021.10061        -9.38453        15.88945
     2021.10335        12.65949        16.11124
     2021.10609         7.36551        16.33544
     2021.10882         9.85953        16.36919
     2021.11156       -19.27245        16.58375
     2021.11704        53.50059        17.17198
     2021.12251        31.56363        16.72358
     2021.12525        42.78865        16.45357
     2021.12799        32.75767        16.76456
     2021.13073        31.76169        16.16428
     2021.13347        17.85571        16.78626
     2021.13620        48.04373        16.12329
     2021.13894        46.61375        15.71587
     2021.14168        37.77877        16.38607
     2021.14442        44.64779        16.31375
     2021.14715        37.11581        16.23178
     2021.14989        26.66583        16.10642
     2021.15263        42.35285        16.67536
     2021.15537        56.05487        16.54518
     2021.15811        49.40689        16.67054
     2021.16084        49.76290        16.05579
     2021.16358        31.80492        16.63438
     2021.16632        23.78794        16.75010
     2021.16906        41.12596        15.91356
     2021.17453        59.20400        16.68260
     2021.18001        58.64198        15.94490
     2021.18275        22.05706        16.68501
     2021.18548        44.53508        15.97624
     2021.18822        41.97210        15.61221
     2021.19096        49.11612        15.67007
     2021.19370        43.81114        15.98829
     2021.19644        27.48316        15.66043
     2021.19917        39.17618        15.81230
     2021.20191        33.19520        15.88222
     2021.20465        54.72122        15.71105
     2021.20739        47.32024        15.26506
     2021.21013        54.92926        15.65319
     2021.21286        45.08828        15.40970
     2021.21834        42.23932        15.53748
     2021.22108        38.55334        15.00228
     2021.22381        24.44035        15.04568
     2021.22655        27.44437        14.89139
     2021.22929        21.09239        15.36631
     2021.23203        22.90741        15.01916
     2021.23477        13.13443        15.38077
     2021.23750        15.73745        15.06978
     2021.24024        14.53047        15.27952
     2021.24298         5.78649        15.31568
     2021.24572         9.36651        15.21202
     2021.24846        -8.61747        15.47721
     2021.25119        -4.34945        15.11800
     2021.25393         4.84557        14.87692
     2021.25667        -1.89641        15.12764
     2021.25941        -4.74439        14.49843
     2021.26214        -9.61337        14.82630
     2021.26488       -14.48335        14.94925
     2021.26762         2.27167        14.91308
     2021.27857         5.67775        14.71781
     2021.28952        -2.83218        14.35137
     2021.29226       -39.40716        13.25206
     2021.29500       -35.08714        12.99410
     2021.29774       -36.35612        13.29786
     2021.30047       -33.68610        12.91937
     2021.30321       -34.25508        12.85428
     2021.30595       -33.99506        13.16286
     2021.30869       -29.20904        13.30027
     2021.31143       -32.39202        12.74097
     2021.31416       -34.97800        12.79401
     2021.31690       -30.81198        12.73374
     2021.31964       -36.06396        13.13393
     2021.32238       -31.91594        13.33884
     2021.32512       -35.58992        12.77472
     2021.32785       -35.49690        12.77231
     2021.33059       -30.51488        12.69517
     2021.33333       -33.87086        12.72410
     2021.33607       -31.09084        12.84463
     2021.33880       -41.29782        12.82294
     2021.34154       -36.41380        12.79642
     2021.34428       -38.54178        12.98928
     2021.34702       -44.20576        12.68552
     2021.34976       -35.24774        12.72410
     2021.35249       -33.59973        12.87115
     2021.35523       -38.96371        12.74579
     2021.35797       -37.59569        12.73856
     2021.36071       -39.23167        12.89526
     2021.36344       -37.10065        12.69758
     2021.36618       -44.96463        12.77472
     2021.36892       -43.15661        12.85910
     2021.37166       -40.24759        12.71445
     2021.37440       -38.80657        12.66383
     2021.37713       -36.97955        12.67829
     2021.37987       -35.94653        12.97241
     2021.38261       -36.03551        13.62091
     2021.38535       -44.91049        13.29786
     2021.38809       -47.16147        12.94348
     2021.39082       -38.27245        12.62284
     2021.39356       -37.19443        12.65418
     2021.39630       -37.19841        12.76508
     2021.39904       -33.31839        12.74579
     2021.40177       -33.77037        12.73374
     2021.40451       -33.26135        13.01339
     2021.40725       -40.02733        12.70240
     2021.40999       -38.60631        12.82294
     2021.41273       -39.71429        12.82535
     2021.41546       -38.52527        13.03268
     2021.41820       -44.53626        12.95312
     2021.42094       -38.77824        12.78678
     2021.42368       -36.54122        12.76990
     2021.42642       -36.32220        12.81329
     2021.42915       -28.94918        12.79401
     2021.43189       -30.57716        12.88321
     2021.43463       -35.85014        12.82294
     2021.43737       -31.50812        12.81571
     2021.44010       -35.12610        13.10018
     2021.44284       -39.07208        13.08571
     2021.44558       -28.17906        13.13152
     2021.44832       -35.58004        13.01339
     2021.45106       -35.65902        12.92901
     2021.45379       -33.65300        12.98687
     2021.45653       -33.12798        12.99169
     2021.45927       -32.53796        12.77713
     2021.46201       -32.15894        12.71204
     2021.46475       -33.71292        12.71445
     2021.46748       -27.04290        12.78436
     2021.47022       -30.73088        13.37018
     2021.47296       -32.35586        13.11223
     2021.47570       -32.53284        13.14839
     2021.47843       -33.52282        13.05196
     2021.48117       -39.01581        13.21831
     2021.48391       -37.52279        13.12428
     2021.48665       -35.72477        13.08571
     2021.48939       -28.88075        13.01821
     2021.49212       -31.55673        12.98687
     2021.49486       -27.58671        12.93142
     2021.49760       -33.22069        13.24482
     2021.50034       -36.84067        13.26893
     2021.50308       -30.81165        13.17973
     2021.50581       -54.57263        13.00134
     2021.50855       -33.84761        12.94830
     2021.51129       -31.45359        12.95312
     2021.51403       -35.96457        13.04714
     2021.51676       -22.32155        13.19902
     2021.51950       -29.26953        13.36295
     2021.52224       -26.07751        13.18214
     2021.52498       -32.44749        13.03026
     2021.52772       -26.66647        13.01580
     2021.53045       -30.88145        13.10500
     2021.53319       -23.51043        12.96999
     2021.53593       -31.14641        13.32920
     2021.53867       -26.67939        13.84752
     2021.54141       -20.86737        13.26170
     2021.54414       -33.41435        13.23759
     2021.54688       -28.00934        13.05919
     2021.54962       -30.63232        13.04714
     2021.55236       -28.04030        13.01821
     2021.55509       -26.59028        13.24965
     2021.55783       -33.48426        13.27616
     2021.56057       -30.68024        13.06402
     2021.56331       -28.37522        13.08089
     2021.56605       -30.88120        13.01821
     2021.56878       -27.46118        13.01821
     2021.57152       -25.41416        13.01580
     2021.57426       -24.99914        13.06160
     2021.57700       -21.43612        13.46903
     2021.57974       -26.14610        13.06884
     2021.58247       -28.54608        13.08571
     2021.58521       -30.59206        13.02785
     2021.58795       -26.49304        13.06160
     2021.59069       -32.09802        13.09294
     2021.59342       -27.14700        13.25688
     2021.59616       -29.55298        13.15321
     2021.59890       -29.15896        13.00616
     2021.60164       -22.69894        12.96758
     2021.60438       -28.60892        13.17732
     2021.60711       -29.51590        13.24965
     2021.60985       -25.91889        13.03991
     2021.61259       -23.85387        12.98687
     2021.61533       -29.82285        13.44010
     2021.61807       -25.81683        13.09294
     2021.62080       -23.73881        13.08812
     2021.62354       -27.37079        12.99892
     2021.62628       -31.56077        12.96035
     2021.62902       -27.09575        13.05919
     2021.63175       -28.77573        12.98928
     2021.63449       -28.21371        13.00375
     2021.63723       -21.65669        13.49072
     2021.63997       -28.36167        13.29545
     2021.64271       -24.38265        13.18214
     2021.64544       -21.24263        13.08330
     2021.64818       -23.92861        13.00616
     2021.65092       -29.99159        12.95553
     2021.65366       -25.40357        13.05437
     2021.65639       -27.37455        13.22072
     2021.65913       -17.18953        12.99410
     2021.66187       -17.01651        12.95312
