# ================= DQRFIT RESULTS ================
# INPUT FILE: series/BCFJ.rad
# OUTPUT: LDETRENDED
# FILTER FUNCTION: f(t)
# f(t)=+line(t)+annual(t)
# line(t)=+P 1+P 2*t
# annual(t)=+P 3*sin(2*pi*t+P 4)
# heav(t)=(t<0?0:1)
# TOTAL OBSERVATIONS MTOT= 3314
# INITIAL TIME INTERVAL= 2022.7488 - 2009.0075 = 13.7413
# TOTAL OBSERVATIONS AFTER PREFILTER M= 3287
# TIME-SPAN= 2022.7488 - 2009.0075 = 13.7413
# OBSERVATIONS: USED M=  3287 REJECTED MTOT-M=    27 %USED=   99.1853
# N=  4 PARAMETERS
# MAXSIG= 175.00000
# MAXRES=  90.64222
# SCALE FACTOR FOR LENGTHS: SCL=  10.00000
# SCALE FACTOR FOR SIGMAS: SCLSIG=   1.00000
# CHI^2=  52798.525 DOF=  3283 CHI^2/DOF=  16.08240
# RMS=     22.383 SDEV=     22.378 MEAN=    0.61527
#  P #       PARAMETER +-    SIGMA %error PARAMETER NAME
# P 1 =    -15184.26869 +-  254.399   1.68 YZERO                              
# P 2 =         7.54345 +-    0.126   1.67 SLOPE                              
# P 3 =         6.87595 +-    0.560   8.15 ANNUAL AMPLITUDE                   
# P 4 =        -2.19896 +-    0.067   3.06 ANNUAL PHASE                       
#       T            LDETRENDED       SIG_OBS
     2009.00752        14.62945        21.82799
     2009.01026        17.48280        21.71169
     2009.01300        30.66714        21.76784
     2009.01574        21.96849        21.72372
     2009.01848        21.49084        21.81997
     2009.02395        12.22553        22.26511
     2009.02669         8.21988        21.69565
     2009.02943         6.41223        21.78789
     2009.03216         5.20857        21.92023
     2009.03490        10.83592        21.90018
     2009.03764         5.06027        22.06861
     2009.04312         7.59496        21.94429
     2009.04585        10.31631        22.06861
     2009.04859         6.20566        22.00444
     2009.05133         9.60200        21.96835
     2009.05407         7.65835        22.02851
     2009.05681        10.66270        21.86809
     2009.06228        -0.58061        21.98840
     2009.06502         1.76774        22.91478
     2009.06776         4.27609        21.95632
     2009.07049         7.08543        22.19293
     2009.07323        13.50378        21.93627
     2009.07597        13.10713        21.79190
     2009.08145        14.90182        21.89216
     2009.08418        15.73817        21.59540
     2009.08692         8.56152        21.74378
     2009.08966         7.64486        21.65956
     2009.09240         6.81921        21.89216
     2009.09514        13.03556        21.87612
     2009.10061        16.21625        21.65154
     2009.10335        14.75660        21.76784
     2009.10609        15.33795        21.84804
     2009.10882        16.64129        21.79591
     2009.11156        13.30064        21.76383
     2009.11430        10.35499        23.38398
     2009.11978         5.26068        21.78388
     2009.12251         5.88203        22.00846
     2009.12525         6.92238        21.80794
     2009.12799        12.08272        21.78388
     2009.13073        15.17707        21.98840
     2009.13347         8.68742        21.70768
     2009.13894         9.06711        21.86007
     2009.14168         5.12146        21.86007
     2009.14442         5.58681        21.69565
     2009.14715         3.38315        22.18491
     2009.14989         5.58150        22.35334
     2009.15263         4.85185        21.87612
     2009.15811         8.42354        22.28516
     2009.16084         3.44189        21.79190
     2009.16358        11.33424        21.98840
     2009.16632        11.67058        22.08866
     2009.16906        13.21393        22.37339
     2009.17180        15.13028        21.93226
     2009.17727        16.58197        22.50172
     2009.18001        11.98532        21.93627
     2009.18275         5.12467        21.98840
     2009.18548         1.48501        22.01247
     2009.18822         2.04736        22.18491
     2009.19096         6.23771        21.98038
     2009.19644        15.48540        22.38943
     2009.19917        16.38775        21.93627
     2009.20191        12.42910        21.59540
     2009.20465         8.67244        21.53123
     2009.20739        10.97779        21.49514
     2009.21013         7.44914        21.66758
     2009.21560        14.16183        21.54727
     2009.21834         9.54218        21.55529
     2009.22108        13.32253        21.58336
     2009.22381         8.10687        21.59139
     2009.22655         9.37222        21.67560
     2009.22929         7.77857        21.63550
     2009.23477        11.28426        21.97236
     2009.23745        15.74104        22.18892
     2009.24372        20.16371        31.79356
     2009.24572        20.10865        22.10069
     2009.24846        16.41300        21.79190
     2009.25393        14.12769        22.48969
     2009.25667         8.91404        21.95231
     2009.25941         8.58439        21.89216
     2009.26214        13.07373        21.97637
     2009.26488        11.57008        21.84002
     2009.26762        12.98043        21.95231
     2009.27310        11.41712        21.94028
     2009.27583        13.68447        21.90820
     2009.27857        12.73982        21.95231
     2009.28131        12.31116        21.95231
     2009.28405        16.58851        22.61000
     2009.28679        12.60486        22.12475
     2009.29226         9.58955        22.22501
     2009.29500        10.88090        22.16887
     2009.29774         8.94825        22.23303
     2009.30047         9.14759        22.39745
     2009.30321        10.74694        22.19293
     2009.30595        15.33829        22.56990
     2009.31143        14.99598        22.14079
     2009.31416        14.36133        22.23303
     2009.31690         7.04168        22.29720
     2009.31964         4.32202        22.22902
     2009.32238         9.06037        22.34131
     2009.32512         6.02772        22.73031
     2009.33059        11.70641        22.24506
     2009.33333         8.58176        22.29319
     2009.33607        16.00011        22.42954
     2009.33880        18.43945        22.38542
     2009.34154        21.49480        22.45761
     2009.34428        15.39515        22.27714
     2009.34976        13.02984        22.45761
     2009.35249         7.65419        22.47365
     2009.35523         9.54654        22.33730
     2009.35797        17.05188        22.34532
     2009.36071        21.15023        22.54182
     2009.36344        13.63958        22.26511
     2009.36892        12.87327        22.51776
     2009.37166        17.02262        22.40146
     2009.37440        15.74397        22.32928
     2009.37713         8.11631        22.35735
     2009.37987        12.87666        22.70624
     2009.38261        14.92501        22.49370
     2009.38809         4.15670        22.26912
     2009.39082        10.13505        22.33730
     2009.39356         9.19140        22.29319
     2009.39630         8.60674        22.28115
     2009.39904        14.20209        22.40948
     2009.40177        14.74344        22.36136
     2009.40725        18.87913        22.27714
     2009.41005        20.01205        23.87725
     2009.41273        16.72283        22.27313
     2009.41546        11.59417        22.17689
     2009.41820        10.88352        22.24105
     2009.42094         7.41887        22.38542
     2009.42642        10.41756        22.32126
     2009.42915        13.25391        22.57792
     2009.43189        10.64926        23.16342
     2009.43463        14.39960        22.30923
     2009.43737        19.45295        22.44558
     2009.44010        14.87930        22.26912
     2009.44558        17.15299        22.49370
     2009.44832        19.20534        22.50172
     2009.45106        15.99469        22.57391
     2009.45379        20.75403        22.57792
     2009.45653        15.28838        22.88671
     2009.45927        17.82873        22.27714
     2009.46475        22.29442        22.82655
     2009.46748        16.13277        23.03910
     2009.47022        18.04912        22.51776
     2009.47296        19.04746        22.24907
     2009.47570        20.63081        22.40146
     2009.47843        21.98516        22.52177
     2009.48391        17.29685        22.57792
     2009.48665         8.97120        22.95488
     2009.48939        15.87955        22.65812
     2009.49212        18.63389        22.65812
     2009.49486        19.82924        22.69822
     2009.49737        14.73631        25.16856
     2009.50034         9.69594        22.47766
     2009.50308         9.96528        22.36136
     2009.50581        11.05763        22.51375
     2009.50855        13.13598        22.39745
     2009.51129        19.30732        22.61401
     2009.51403        16.60067        22.58193
     2009.51676        15.81202        22.74635
     2009.51950        12.68237        22.54182
     2009.52224        11.09671        22.41349
     2009.52498         7.14506        22.50172
     2009.52772        16.38641        22.89072
     2009.53045        13.01275        22.59797
     2009.53319        10.96010        22.24506
     2009.53593        17.75345        22.38943
     2009.53867        15.45280        22.45761
     2009.54141        15.24114        22.24105
     2009.54414        25.06849        22.89072
     2009.54688        20.39584        22.82254
     2009.54962        20.17218        22.54583
     2009.55236        19.47753        22.71427
     2009.55509        18.39688        24.66728
     2009.55783        30.94423        22.65010
     2009.56057        18.15857        23.60054
     2009.56331        17.48292        23.37997
     2009.56605        16.61327        22.95889
     2009.56878        15.68161        22.29319
     2009.57152        21.12896        22.81853
     2009.57426        18.00231        22.51776
     2009.57700        22.68766        23.08722
     2009.57974        22.03400        22.62203
     2009.58247        25.50135        22.82254
     2009.58521        24.34570        22.99098
     2009.58795        18.91204        22.75838
     2009.59069        20.92239        22.66213
     2009.59342        14.27974        23.04311
     2009.59616        24.11409        22.92681
     2009.59890        18.86343        22.20095
     2009.60164        19.75078        22.65010
     2009.60438        15.11113        22.51375
     2009.60711        25.09347        23.11930
     2009.60985        19.36582        22.54182
     2009.61259        20.70617        22.38943
     2009.61533        15.36252        22.24907
     2009.61807        23.09686        22.42954
     2009.62080        24.97121        22.54583
     2009.62354        21.66256        22.43355
     2009.62628        18.78090        22.58995
     2009.62902        20.41625        23.07118
     2009.63147        18.41075        25.34100
     2009.63529        21.83192        35.34667
     2009.63723        15.79929        23.93339
     2009.63997        20.60064        23.01905
     2009.64271        20.05099        22.68218
     2009.64544        23.63533        22.71828
     2009.64818        21.06068        22.86666
     2009.65092        17.82503        23.04712
     2009.65366        15.71538        23.15540
     2009.65639        11.55172        22.33329
     2009.65913        20.40007        22.28516
     2009.66187        18.00542        22.59797
     2009.66461        25.92776        22.35735
     2009.66735        16.91411        23.01504
     2009.67008        19.52946        22.67015
     2009.67282        18.93781        22.55385
     2009.67556        24.86915        22.34933
     2009.67830        21.39950        22.83858
     2009.68104        23.48285        22.84661
     2009.68377        16.39819        22.42151
     2009.68651        29.57454        22.18892
     2009.68925        22.77089        22.22902
     2009.69199        19.12624        22.42954
     2009.69472        13.90558        23.15941
     2009.69746        20.19493        22.32928
     2009.70020        24.00028        22.73031
     2009.70294        25.42362        22.26912
     2009.70568        18.45497        22.14079
     2009.70841        17.85332        22.54182
     2009.71115        17.01767        22.90676
     2009.71389        24.88701        23.86121
     2009.71663        21.17236        22.46162
     2009.71897        22.18572        26.37165
     2009.72216        17.20162        23.05915
     2009.72484        21.93040        22.87468
     2009.72758        17.00275        23.18748
     2009.73032        23.32710        22.84259
     2009.73305        27.08444        22.97493
     2009.73579        23.15879        22.52578
     2009.73853        19.40314        22.26511
     2009.74127        20.44748        23.66069
     2009.74401        25.81683        22.89473
     2009.74674        32.76418        22.15684
     2009.74948        20.71653        22.34933
     2009.75222        17.53187        22.28115
     2009.75496        14.30322        22.40547
     2009.75770        12.35257        22.48167
     2009.76043        12.67892        22.48568
     2009.76317        24.48026        22.36938
     2009.76591        16.96261        22.12475
     2009.76865        16.13796        22.52979
     2009.77138        12.84830        22.36938
     2009.77412         9.67165        22.59396
     2009.77686        16.38000        22.25709
     2009.77960        18.37735        22.12876
     2009.78234        20.44469        22.16486
     2009.78507        21.94904        22.36136
     2009.78781        21.60939        24.39057
     2009.79055        12.26073        23.50429
     2009.79329        17.93008        23.20352
     2009.79603        18.16143        23.10326
     2009.79876        18.97578        23.14337
     2009.80150        16.34712        23.15540
     2009.80424        20.45347        23.13936
     2009.80698        21.47482        23.34789
     2009.80971        25.90916        23.09925
     2009.81245        30.11051        23.50830
     2009.81519        27.95586        23.66871
     2009.81793        23.43821        23.48023
     2009.82067        26.62055        23.40403
     2009.82340        16.31290        22.68218
     2009.82614        18.78225        22.78244
     2009.82888        17.84259        22.99900
     2009.83162        24.17894        23.19149
     2009.83436        13.97329        22.93884
     2009.83709        14.50664        22.98697
     2009.83983        15.70198        23.11529
     2009.84257        15.39033        22.80249
     2009.84531        20.47668        23.50028
     2009.84804        27.94702        23.27972
     2009.85078        24.64137        22.95889
     2009.85352        26.05772        22.86666
     2009.85626        20.53207        22.90676
     2009.85900        15.53541        23.22357
     2009.86173        17.17076        22.97894
     2009.86447        22.64311        24.31437
     2009.86721        29.32445        23.43612
     2009.86995        22.46980        22.91879
     2009.87269        31.08015        23.00702
     2009.87542        23.28150        23.10326
     2009.87816        23.94984        23.40403
     2009.88090        15.00919        23.37997
     2009.88364        19.67454        22.75838
     2009.88637        24.65588        22.91879
     2009.88911        28.60723        22.61401
     2009.89185        23.38258        22.65010
     2009.89459        18.63993        22.54182
     2009.89733        14.47227        22.34131
     2009.90006        13.62562        22.35735
     2009.90280        16.17697        22.63406
     2009.90554        19.92631        22.59396
     2009.90828        15.60966        22.51375
     2009.91102        17.18001        22.41750
     2009.91375        17.37936        22.27714
     2009.91649        13.14870        22.26912
     2009.91923         9.64005        22.56187
     2009.92197        10.07340        22.46162
     2009.92470         5.30374        22.39745
     2009.92744         1.40209        22.04856
     2009.93018        -1.53156        22.06059
     2009.93292         3.75979        22.28918
     2009.93566         6.27913        22.27313
     2009.93839        10.57648        34.82934
     2009.94113        11.36883        22.20496
     2009.94387        11.18317        22.76239
     2009.94661         5.43752        22.83056
     2009.94935         3.50287        22.47365
     2009.95208         3.53622        22.32527
     2009.95482         2.39856        22.29319
     2009.95756         9.33591        22.22902
     2009.96030         6.78926        22.08064
     2009.96303         8.83960        22.55385
     2009.96577         6.84895        22.85463
     2009.96851         3.61430        22.73432
     2009.97125         9.52965        22.72229
     2009.97399         6.38599        22.50172
     2009.97672         3.09434        22.01648
     2009.97946         1.02969        22.36136
     2009.98220         3.01303        22.40146
     2009.98465         3.94153        26.04681
     2009.98767         3.66473        22.27714
     2009.99041         5.91408        22.32928
     2009.99315         5.04842        22.60198
     2009.99589         5.95577        22.22100
     2009.99863        -0.83488        22.26511
     2010.00136        -0.83854        22.08866
     2010.00410         5.85881        22.17288
     2010.00684         1.28916        22.20897
     2010.00958         0.71151        22.21699
     2010.01232        -3.80815        22.17689
     2010.01505        -2.69880        22.32126
     2010.01779         5.85455        22.28115
     2010.02053         9.77589        22.31324
     2010.02327         7.67824        22.28516
     2010.02600         8.45759        22.14480
     2010.02874        12.19394        22.22501
     2010.03148        15.24528        22.12475
     2010.03422         9.43563        22.64208
     2010.03696        13.56198        23.58851
     2010.03969        16.77832        22.92280
     2010.04243        14.07367        22.28918
     2010.04517        22.34902        22.30923
     2010.04791        23.66537        22.10470
     2010.05065        18.49171        22.55786
     2010.05338        15.25006        23.72085
     2010.05612        13.92541        22.37740
     2010.05886        13.84175        22.03252
     2010.06160         5.52210        22.00846
     2010.06433         3.27045        22.79046
     2010.06707         1.65180        22.10069
     2010.06981         0.16314        22.62604
     2010.07255         3.78949        23.29175
     2010.07529         6.68484        22.81051
     2010.07802         4.81818        22.00043
     2010.08076         3.72453        22.00444
     2010.08350         8.91588        23.92537
     2010.08624        14.60323        22.03653
     2010.08898        19.81357        22.47766
     2010.09171        15.46192        21.96835
     2010.09445        17.78527        22.62604
     2010.09719        13.98861        22.59797
     2010.09993        10.48696        22.04455
     2010.10266        13.84731        22.09267
     2010.10540        14.45266        22.61401
     2010.10814        13.44700        22.47365
     2010.11088        13.82035        22.40547
     2010.11362        12.56470        22.27714
     2010.11635        14.84004        22.42151
     2010.11909        14.60539        22.31324
     2010.12183        10.65974        22.13277
     2010.12457        12.43409        22.14882
     2010.12731        13.71443        22.67015
     2010.13004         8.14678        22.42552
     2010.13278         5.78613        22.46964
     2010.13552         8.67447        22.25308
     2010.13826         6.48882        22.18892
     2010.14099         8.80817        22.05658
     2010.14373        10.52652        22.71828
     2010.14647         8.93086        22.91077
     2010.14921        15.02421        22.42954
     2010.15195        10.44856        22.08866
     2010.15468        13.95190        22.11673
     2010.15742        14.08625        22.16486
     2010.16016        16.14560        22.24506
     2010.16290        16.52695        22.90676
     2010.16564        13.92929        22.26912
     2010.16837        11.45664        22.40547
     2010.17111        14.36999        22.16486
     2010.17336        12.24803        29.16682
     2010.18480        15.87772        22.62203
     2010.18754        16.15707        22.84259
     2010.19028        20.03042        22.28918
     2010.19301        18.33376        22.02450
     2010.19575        15.33911        21.97236
     2010.19849        12.67346        22.21298
     2010.20123        10.76181        22.28516
     2010.20397        11.17115        22.64208
     2010.20670         3.26950        22.70624
     2010.20944         5.91585        22.17288
     2010.21218         5.99419        22.14480
     2010.21492        14.00654        22.27313
     2010.21765        13.75789        22.33730
     2010.22039        12.70224        22.63807
     2010.22313         6.28158        22.12876
     2010.22587         4.30193        23.00301
     2010.22861        12.86928        22.41349
     2010.23134        14.84762        22.38141
     2010.23408        11.85397        22.52979
     2010.23682        16.92832        22.58594
     2010.23956        26.93467        22.58193
     2010.24230        24.54601        24.11787
     2010.24503        16.64236        23.73288
     2010.24777        14.46571        22.54182
     2010.25051        20.43105        24.62717
     2010.25336        23.54554        23.84918
     2010.25598        20.46275        22.54984
     2010.25872        19.83810        23.18347
     2010.26146        20.27644        25.33298
     2010.26420        23.70479        23.66069
     2010.26694        25.09814        22.76640
     2010.26967        17.30148        22.83056
     2010.27241        11.28683        22.99098
     2010.27515         8.33918        22.51375
     2010.27789         9.30153        24.25823
     2010.28062        11.73287        22.28115
     2010.28336        11.96522        22.81452
     2010.28610        10.67257        22.92681
     2010.28884        15.90291        22.47766
     2010.29163        16.04083        23.51231
     2010.29431        17.95061        22.71427
     2010.29705        16.10296        22.46964
     2010.29979        15.62130        22.96691
     2010.30253        24.39365        23.09123
     2010.30527        23.29600        23.65668
     2010.30800        21.85434        22.52177
     2010.31074        19.08369        22.15283
     2010.31348        15.93504        22.33730
     2010.31622        17.73939        22.38141
     2010.31895        18.27273        23.03910
     2010.32155        22.83012        25.31293
     2010.34360         8.15786        22.30121
     2010.34633         7.23420        22.79046
     2010.34907         9.79955        22.55385
     2010.35181        10.93190        22.50172
     2010.35455        13.78325        22.52578
     2010.35728         7.71559        22.58995
     2010.36002        13.54294        23.02306
     2010.36276        12.27329        22.27714
     2010.36550         9.04363        23.59653
     2010.36824         9.28198        23.56044
     2010.37097        14.34033        22.33329
     2010.37371        17.59168        22.28115
     2010.37645        15.34802        22.42552
     2010.37919        21.05937        23.05113
     2010.38193        15.39672        23.27571
     2010.38466        13.75006        23.09524
     2010.38740        29.40641        22.71026
     2010.39014         5.63576        22.70223
     2010.39288         7.50711        22.69421
     2010.39561         1.29145        22.83457
     2010.39835         5.29480        22.40547
     2010.40109         5.81015        22.39344
     2010.40383        10.31849        22.32126
     2010.40657         9.46484        26.29144
     2010.40930         9.63719        22.42151
     2010.41204         9.91654        22.50573
     2010.41478        18.12588        22.24506
     2010.41752        18.72323        22.17689
     2010.42026        22.35658        22.14882
     2010.42299        22.16692        22.56588
     2010.42573        12.14927        22.30923
     2010.42847         8.28262        22.19694
     2010.43121        11.07997        23.06717
     2010.43394        12.77831        22.25308
     2010.43668         8.27366        22.16887
     2010.43891        12.83188        28.16425
     2010.44216        12.72935        22.27714
     2010.44490        12.76370        22.25709
     2010.44763        11.24805        22.63807
     2010.45037        15.75140        22.16486
     2010.45311        13.28374        22.30923
     2010.45585         7.14809        22.49370
     2010.45859        10.03944        22.34933
     2010.46132        17.08478        22.60599
     2010.46406        16.46113        22.31725
     2010.46680        13.94348        22.46162
     2010.46954         8.70083        22.37339
     2010.47227         6.17417        22.63005
     2010.47501        12.98452        22.25308
     2010.47775        14.15387        23.15139
     2010.48049        18.59921        23.08321
     2010.48323        18.78556        22.54984
     2010.48596        20.37591        22.60198
     2010.48870        18.59526        22.18892
     2010.49144        17.10660        22.47766
     2010.49418        16.86695        22.32527
     2010.49692        17.29330        22.18491
     2010.49965        17.57464        22.19293
     2010.50239        22.88799        22.19293
     2010.50513        21.94234        22.26110
     2010.50787        20.19969        22.14079
     2010.51060        13.75503        22.24105
     2010.51334        17.10938        22.34933
     2010.51608        11.35673        22.52177
     2010.51882        22.27608        22.67817
     2010.52156        22.76042        22.48167
     2010.52429        29.90777        22.51375
     2010.52703        20.68212        22.23303
     2010.52977        25.04346        22.44558
     2010.53251        16.53181        22.53781
     2010.53525        21.26716        22.51375
     2010.53798        14.45651        22.71427
     2010.54072         9.58385        22.18491
     2010.54300        14.04664        28.48507
     2010.54620        15.37055        22.33329
     2010.54893        10.77489        22.40948
     2010.55167        16.14324        22.48969
     2010.55441        20.75859        22.33730
     2010.55715        17.40594        22.69822
     2010.55989        15.91128        22.66213
     2010.56262        18.98563        22.27714
     2010.56536        18.77998        22.85864
     2010.56810        12.31632        22.58193
     2010.57084        16.31367        22.57391
     2010.57357        18.14802        23.34789
     2010.57631        12.51537        23.47221
     2010.57905        12.56071        22.35735
     2010.58179        13.59306        22.45761
     2010.58453        10.89041        22.73833
     2010.58726        10.49875        23.04311
     2010.59000        12.77310        22.99499
     2010.59274        17.15545        22.30121
     2010.59548        26.70780        22.51776
     2010.59822        25.30714        22.29319
     2010.60095        27.48349        22.74635
     2010.60369        18.57084        22.11673
     2010.60643        20.00818        22.25709
     2010.60917        16.53153        22.31324
     2010.61190        16.32488        22.55385
     2010.61464        18.96823        22.67015
     2010.61738        13.35857        22.31725
     2010.62012        15.29392        22.30923
     2010.62286        17.01727        22.48167
     2010.62559        18.14161        22.48167
     2010.62833        20.79696        22.42552
     2010.63107        25.22131        23.18748
     2010.63381        21.20466        22.22902
     2010.63655        22.22800        22.12876
     2010.63928        17.95435        22.45360
     2010.64202        13.38270        22.38141
     2010.64476        12.49804        23.21956
     2010.64750        15.31239        22.95889
     2010.65023        21.02474        23.06316
     2010.65297        21.48109        23.29576
     2010.65571        20.17143        22.06059
     2010.65845        13.83078        21.94028
     2010.66119        16.99713        22.28516
     2010.66392        18.80547        22.36537
     2010.66666        21.30782        21.90018
     2010.66940        14.91717        22.05658
     2010.67214        18.97552        22.28918
     2010.67488        22.39186        22.48969
     2010.67761        18.84821        21.96434
     2010.68035        18.57356        21.88815
     2010.68309        17.62390        21.99642
     2010.68583        18.30925        22.06460
     2010.68856        14.23660        22.20095
     2010.69130        16.88995        22.12876
     2010.69404        13.85429        22.83858
     2010.69678        13.58464        21.91622
     2010.69952        11.04599        22.08064
     2010.70225        10.68633        22.21298
     2010.70499        12.16468        22.07262
     2010.70773        13.30403        21.99241
     2010.71047        15.38038        22.00043
     2010.71321        17.18972        22.12876
     2010.71594        16.87507        22.14079
     2010.71868        18.24142        22.13678
     2010.72142        18.07976        22.68619
     2010.72416        16.88511        22.57792
     2010.72689        22.60446        22.29319
     2010.72963        16.93081        21.84002
     2010.73237        21.64615        22.38141
     2010.73511        16.56350        22.03252
     2010.73785        24.84285        22.36938
     2010.74058        16.92519        23.28774
     2010.74332         9.28054        22.26511
     2010.74606        17.82689        22.22501
     2010.74880        14.56424        22.36136
     2010.75154        18.01858        22.30522
     2010.75427        19.38693        22.09668
     2010.75701        16.09128        22.28918
     2010.75975        18.63162        22.09668
     2010.76249        18.62497        22.20897
     2010.76522        13.87832        22.44157
     2010.76796        19.61867        22.44959
     2010.77070        18.04601        22.45761
     2010.77344        20.22836        22.65411
     2010.77618        19.12971        22.71026
     2010.77891        14.53905        22.12074
     2010.78165        18.67640        22.16085
     2010.78439        19.83275        22.73833
     2010.78713        20.67510        22.54984
     2010.78987        19.07644        21.98038
     2010.79260        17.99479        24.33442
     2010.79551        18.51985        24.07375
     2010.79808        22.32648        22.08064
     2010.80082        15.91683        22.08064
     2010.80355        22.50118        22.03252
     2010.80629        19.18353        22.21699
     2010.80903        18.54487        22.10069
     2010.81177        27.14222        22.08064
     2010.81451        31.31357        21.85205
     2010.81724        28.69091        21.95231
     2010.81998        23.54226        21.85606
     2010.82272        14.29061        22.58995
     2010.82546        16.09196        21.91622
     2010.82820        20.44530        21.99241
     2010.83093        22.90265        23.18748
     2010.83367        19.44900        23.25966
     2010.83641        14.55534        22.21699
     2010.83915        11.88269        21.95632
     2010.84188        16.82404        21.88414
     2010.84462        19.61639        22.08465
     2010.84736        19.17473        22.26912
     2010.85010        20.43708        22.23704
     2010.85284        18.68843        21.94830
     2010.86926        14.25551        26.10697
     2010.87200        13.56086        26.12301
     2010.87474        10.33620        26.49196
     2010.87748         7.42155        26.50399
     2010.88021        11.07290        26.07489
     2010.88295         8.61025        26.76065
     2010.88569         7.16959        26.10296
     2010.88843         5.81694        27.83139
     2010.89117         8.20029        27.79129
     2010.89390        14.72063        26.00270
     2010.89664        16.78598        25.94656
     2010.89938        23.51633        25.99869
     2010.90212        21.81568        25.97864
     2010.90485        18.57102        25.75406
     2010.90759        16.91837        25.77411
     2010.91033        14.81672        25.91447
     2010.91307         7.58606        25.89041
     2010.91581         8.16541        25.77411
     2010.91854        12.23276        25.79016
     2010.92128         4.97511        25.75807
     2010.92402         6.51545        25.69391
     2010.92950         6.99015        25.81021
     2010.93223         4.79249        25.87838
     2010.93497        11.33684        25.87437
     2010.93771        13.22019        25.85031
     2010.94045         9.69454        26.52805
     2010.94318        12.11688        25.70594
     2010.94592         8.16323        25.85432
     2010.94866         9.97658        26.04681
     2010.95140        17.32792        26.75663
     2010.95414        14.35227        25.91848
     2010.95687         5.60762        25.77411
     2010.95961         2.24497        26.57216
     2010.96235         6.31531        26.25134
     2010.96509         8.91466        26.11098
     2010.96783        10.68301        25.73000
     2010.97056         8.98935        25.89843
     2010.97330         9.63070        25.86635
     2010.97604         8.56505        25.85833
     2010.97878        10.16740        25.98666
     2010.98151        12.07174        25.71797
     2010.98425        12.87709        25.83427
     2010.98699        17.60544        25.90244
     2010.98973        18.96178        26.35160
     2010.99247        20.42013        26.80476
     2010.99520        12.92548        26.29545
     2010.99794         6.28983        25.89041
     2011.00068        11.06017        25.79818
     2011.00342        15.81752        26.13103
     2011.00616        17.55987        26.05082
     2011.00889        18.45921        26.54409
     2011.01163        21.21556        26.13504
     2011.01431        22.60334        26.75663
     2011.01711        16.60026        26.74460
     2011.01984        10.75760        27.38224
     2011.02258         4.51995        25.76609
     2011.02532         2.14430        25.57360
     2011.02806         3.72264        26.21926
     2011.03080         2.54799        26.24733
     2011.03353         6.64934        25.68990
     2011.03627         1.49469        25.93052
     2011.03901         4.83503        25.52548
     2011.04175         8.31638        25.58563
     2011.04449         6.01873        25.60167
     2011.04722         5.14407        26.41576
     2011.04996         9.45842        26.26337
     2011.05270        13.69777        25.36105
     2011.05544        17.81812        25.38111
     2011.05817        21.44446        25.42121
     2011.06091        15.74681        25.32897
     2011.06365        15.15316        25.57761
     2011.06639        10.38550        25.56558
     2011.06913        13.74585        27.16167
     2011.07186         8.27120        25.83026
     2011.07460         3.62355        25.60167
     2011.07734         1.36089        25.60969
     2011.08008        -0.27776        25.60167
     2011.08282        -3.95841        25.66985
     2011.08555        -2.58207        26.23530
     2011.08829         4.15028        25.79016
     2011.09103         6.83963        25.71396
     2011.09377        15.61198        25.83427
     2011.09650         3.58032        26.35561
     2011.09924         0.31467        25.96260
     2011.10198        -0.12298        25.80219
     2011.10472         1.02136        25.55756
     2011.10746         4.47971        25.71797
     2011.11019        12.16306        25.30892
     2011.11293        13.00341        25.68188
     2011.11567        14.02475        25.82625
     2011.11841        14.94410        25.87838
     2011.12115        10.77845        25.67386
     2011.12388         7.46279        26.89298
     2011.12662         6.38014        27.07746
     2011.12936         7.98949        25.55355
     2011.13215         2.33041        27.68301
     2011.13483         3.80218        25.60969
     2011.13757         5.50853        25.68990
     2011.14031        11.16288        25.40918
     2011.14305         7.46822        26.56414
     2011.14579         2.49857        26.11900
     2011.14852         1.38792        25.38111
     2011.15126         7.05227        25.51345
     2011.15400        20.90561        25.42121
     2011.15674        14.14696        25.45329
     2011.15948        13.09131        25.50142
     2011.16221         3.02369        26.08692
     2011.16495         3.81700        25.75005
     2011.16769        -0.00665        25.40116
     2011.17043        -9.35130        25.45329
     2011.17316       -13.92596        25.43324
     2011.17590       -13.65761        25.44928
     2011.17864        -2.95426        28.62142
     2011.18138        -1.54492        25.26080
     2011.18412         1.13543        25.45730
     2011.18685         9.42478        25.87437
     2011.18959         8.51513        28.84198
     2011.19233         6.52047        25.45730
     2011.19507        13.95282        25.27684
     2011.19780        16.89817        25.69792
     2011.20054        12.98551        25.48537
     2011.20328        12.34186        25.45730
     2011.20602         4.72821        25.66985
     2011.20876         7.32056        25.54553
     2011.21149         7.14390        25.38913
     2011.21423         6.05525        25.35704
     2011.21697        12.43960        25.32897
     2011.21971        12.53594        25.67787
     2011.22245         7.04629        25.79818
     2011.22518         9.33264        25.44126
     2011.22792        12.24999        25.42121
     2011.23066        11.61733        25.47334
     2011.23340        10.14268        25.66985
     2011.23613        10.97703        25.71396
     2011.23887         9.04537        25.41720
     2011.24161        13.60772        25.28486
     2011.24435        17.47107        25.23674
     2011.24709        12.83842        25.53751
     2011.24982        12.27576        28.12414
     2011.25256        15.06411        25.66183
     2011.25530        14.29346        25.41720
     2011.25804        13.19481        26.05884
     2011.26078        15.60415        27.19777
     2011.26351        11.21650        25.54553
     2011.26625         5.11685        25.63375
     2011.26899        18.64419        25.53350
     2011.27173        14.46954        26.60825
     2011.27446        16.17089        26.90502
     2011.27720         7.09224        27.94769
     2011.27994         7.19158        26.58820
     2011.28268        11.47993        25.52949
     2011.28542        -0.72172        25.49339
     2011.28815         3.97562        25.54954
     2011.29089         9.90497        25.66183
     2011.29363        11.44932        25.91046
     2011.29637        11.27367        25.57360
     2011.29911        11.54501        25.37309
     2011.30184        12.30736        25.63375
     2011.30458        11.11771        25.53751
     2011.30732        12.57905        25.67386
     2011.31006        14.84140        25.65782
     2011.31279        11.01975        25.42121
     2011.31553        14.81110        25.66183
     2011.31827        18.08044        25.62172
     2011.32101        10.94979        27.08548
     2011.32375         7.63714        25.49339
     2011.32648         4.01048        26.19118
     2011.32922         4.47983        25.56157
     2011.33196        10.29018        26.07088
     2011.33470         6.26153        25.93453
     2011.33744         5.04887        26.45586
     2011.34017         7.33522        26.92106
     2011.34291         6.28457        26.82882
     2011.34565         8.14791        26.19920
     2011.34839         6.85526        26.42378
     2011.35112         5.51261        26.22327
     2011.35386         0.04896        26.41576
     2011.35660         5.60230        25.52147
     2011.35934         2.55565        25.75005
     2011.36208        -3.77800        25.92250
     2011.36487        -1.27509        27.44239
     2011.36755         5.32469        26.27941
     2011.37029         7.46704        26.45987
     2011.37303        12.70439        26.44784
     2011.37577        10.24073        26.38769
     2011.37850         4.28508        26.64435
     2011.38124        -4.17457        26.63633
     2011.38398         1.89977        26.37566
     2011.38672        -1.16388        26.28743
     2011.38945         6.92047        26.65237
     2011.39219         3.30382        26.40774
     2011.39493         4.44216        26.14707
     2011.39767         7.53051        26.01072
     2011.40041        13.98286        25.98666
     2011.40314         4.25220        30.58646
     2011.40588         7.82755        26.95314
     2011.40862         8.16990        26.29144
     2011.41136         5.66825        26.46789
     2011.41410         5.33659        26.11499
     2011.41683        16.17194        26.70851
     2011.41957         8.55729        26.16712
     2011.42231         5.58263        26.20723
     2011.42505         9.36098        26.78471
     2011.42778         7.47833        26.37165
     2011.43052         5.68568        26.29545
     2011.43326         0.84702        26.26738
     2011.43600         4.55537        26.35561
     2011.43874         8.24972        26.33555
     2011.44147         1.12006        26.25936
     2011.44421        11.59041        26.15509
     2011.44695        10.63176        26.46388
     2011.44969         5.31211        26.30748
     2011.45243         5.43145        26.13504
     2011.45516         3.56980        26.68846
     2011.45790         8.39615        26.51602
     2011.46064         5.40349        26.66039
     2011.46338        -0.36816        26.96517
     2011.46611         6.83319        26.29946
     2011.46885         7.95554        26.29144
     2011.47159        12.79988        26.38769
     2011.47433        12.65523        26.84887
     2011.47707        15.16358        26.90101
     2011.47980        10.76292        27.22183
     2011.48254        -2.70073        26.78070
     2011.48528         2.38862        26.56414
     2011.48802         7.83697        26.48795
     2011.49076        15.81731        26.61226
     2011.49349        10.99666        26.27941
     2011.49623        12.80701        26.77669
     2011.49897        14.27935        26.57216
     2011.50171        14.30670        26.46789
     2011.50444        12.68905        26.25134
     2011.50718         7.18340        26.31550
     2011.50992         7.07974        26.47993
     2011.51266        11.63309        26.60825
     2011.51540        15.85044        26.29545
     2011.51813        15.09378        26.28342
     2011.52087        11.55613        26.45586
     2011.52361         5.60348        28.89412
     2011.52635         4.27483        26.49597
     2011.52908        12.26117        26.41977
     2011.53182        11.21152        26.22327
     2011.53456        16.81687        30.06512
     2011.53730        13.51521        26.24332
     2011.54004        10.68256        27.06944
     2011.54277         5.96791        26.72455
     2011.54551        13.61426        26.32352
     2011.54825        15.91060        26.21926
     2011.55099        13.39795        26.50399
     2011.55373         9.05330        26.41576
     2011.55646        11.41264        26.50800
     2011.55920        16.30499        26.92908
     2011.56194        17.13334        26.29545
     2011.56468        18.02469        26.56414
     2011.56741        16.34803        27.46245
     2011.57015        10.82538        27.09751
     2011.57289         6.14073        26.34759
     2011.57563        12.77707        26.29144
     2011.57837        16.19442        26.28743
     2011.58110        13.10177        26.34358
     2011.58384        15.46612        26.23530
     2011.58658        13.43446        27.68301
     2011.58932        10.83581        26.07088
     2011.59206        14.41716        26.70851
     2011.59479         9.78650        28.70563
     2011.59753        15.80385        26.32753
     2011.60027        11.15920        26.52404
     2011.60301        15.81655        26.13103
     2011.60574        11.69489        26.39972
     2011.60848        14.73324        27.24188
     2011.61122        12.75859        26.95715
     2011.61396        15.86893        26.94111
     2011.61670        18.16428        27.12157
     2011.61943        13.43763        26.67643
     2011.62217        16.34598        26.84085
     2011.62491        11.90932        26.59622
     2011.62765        13.17167        27.59880
     2011.63039        10.78102        26.62831
     2011.63312        13.93036        26.55211
     2011.63586        12.12271        26.50399
     2011.63860        13.98506        27.30203
     2011.64134        15.11241        27.92363
     2011.64407         6.09175        27.59077
     2011.64681        16.90810        26.48795
     2011.64955        11.33945        28.26450
     2011.65229        13.36979        26.82882
     2011.65503        13.05614        26.96517
     2011.65776        15.49049        27.37021
     2011.66050        11.58684        28.06399
     2011.66324        13.36618        27.31808
     2011.66598        14.24553        27.36620
     2011.66872        13.08388        27.57473
     2011.67145        12.36222        26.62831
     2011.67419        14.57857        26.45185
     2011.67693        14.59392        26.53607
     2011.67967        21.31727        26.48795
     2011.68240        11.03661        27.19376
     2011.68514        14.63396        27.25792
     2011.68788        15.32731        28.29659
     2011.69062         6.98765        30.99150
     2011.69336        16.36300        27.16568
     2011.69609         9.71335        27.05340
     2011.69883        13.68170        27.90358
     2011.70157        12.11804        26.53607
     2011.70431        17.67439        26.42378
     2011.70705        15.85774        27.20178
     2011.70978        20.47408        29.23900
     2011.71252        15.17943        26.30748
     2011.71526        14.87778        26.86892
     2011.71800        17.79613        27.54666
     2011.72073        24.26847        26.87293
     2011.72347        20.23882        27.03735
     2011.72621        20.95117        26.64034
     2011.72895        22.55351        26.59221
     2011.73169        23.37586        26.44784
     2011.73442        23.99921        27.98779
     2011.73716        20.79156        26.94913
     2011.73990        15.57690        29.63602
     2011.74264        15.97825        26.67643
     2011.74538        19.81260        28.64548
     2011.74811        19.32694        28.46502
     2011.75085        16.11429        28.54121
     2011.75359         7.50464        28.42090
     2011.75633        17.90899        26.96918
     2011.75906        16.96733        27.88754
     2011.76180         8.97068        27.09751
     2011.76454        15.51403        27.37823
     2011.76728        15.04837        27.01730
     2011.77002        20.62772        27.91160
     2011.77275        21.50307        27.08147
     2011.77549        18.48442        27.20980
     2011.77823        17.37876        29.20692
     2011.78097        14.38111        27.14162
     2011.78371        12.52746        27.24589
     2011.78644        18.40580        27.19777
     2011.78918        12.96515        27.34615
     2011.79192        13.07150        27.48250
     2011.79466         7.11385        27.36219
     2011.79739        23.75319        27.45442
     2011.80287        12.54789        27.23787
     2011.80561        15.64723        27.40630
     2011.80835        19.51358        27.22985
     2011.81108         8.22593        27.45041
     2011.81382         9.76828        35.52713
     2011.81656        12.76362        27.04538
     2011.82295        15.13743        43.63994
     2011.82477        16.67466        21.89216
     2011.82751        15.32001        22.19694
     2011.83025         9.49636        22.76640
     2011.83299         4.32371        24.58707
     2011.83572         7.15305        22.96290
     2011.84120        10.94675        22.02049
     2011.84394        13.30909        21.92023
     2011.84668        10.45944        21.98439
     2011.84941        10.98379        21.98038
     2011.85215         4.38714        22.76640
     2011.85489         2.13348        22.59396
     2011.86036        15.94618        21.82799
     2011.86310        15.99752        21.96033
     2011.86584        21.69287        21.98840
     2011.86858        18.09522        21.97236
     2011.87132        10.54557        22.01247
     2011.87405         3.40491        21.84804
     2011.87953         1.68961        22.27714
     2011.88227         6.66695        22.10871
     2011.88501         7.31130        21.85205
     2011.88774         5.57365        21.88414
     2011.89048        14.45200        22.06460
     2011.89322         9.51234        22.18491
     2011.89869        13.17304        22.06059
     2011.90143         5.78738        21.76383
     2011.90417        11.23173        21.84002
     2011.90691         7.62708        21.83200
     2011.90965         9.71043        22.12074
     2011.91238         4.35977        22.64609
     2011.92881         5.45886        22.61000
     2011.93155         2.11420        22.26511
     2011.93702         5.09590        22.39745
     2011.93971         8.76768        23.00301
     2011.94250         3.96959        22.20897
     2011.94524         8.73094        22.39745
     2011.94798        12.67629        22.38542
     2011.95071         5.31663        22.06460
     2011.95619         5.72333        22.41750
     2011.95893         3.77467        21.70768
     2011.96167         8.04802        21.81596
     2011.96440        15.24437        22.38542
     2011.96714         9.78672        22.11272
     2011.96988         8.07706        21.48712
     2011.97535         3.02276        21.69164
     2011.97809         3.06410        21.82398
     2011.98083         7.64245        21.86408
     2011.98357         8.59280        21.63951
     2011.98631        12.12515        21.60342
     2011.98904        10.77149        21.63149
     2011.99452        12.72119        21.78789
     2011.99726         6.23553        21.60743
     2012.00000        -1.51212        21.66357
     2012.00273         8.28523        21.54727
     2012.00547         4.23558        21.78388
     2012.00821         6.56592        21.76784
     2012.01368         7.63362        21.62347
     2012.01642        10.86896        21.61946
     2012.01916         8.90231        21.68763
     2012.02190        10.47666        21.65956
     2012.02464         1.89401        21.69565
     2012.02737        -1.18265        21.61545
     2012.03285         1.69805        21.89216
     2012.03559        -1.51560        21.67961
     2012.03833        -5.62526        21.64753
     2012.04106        -4.11191        21.65154
     2012.04380        -2.77656        21.91221
     2012.04654         0.56578        21.81596
     2012.05201         4.67348        21.55529
     2012.05475         9.71683        21.55128
     2012.05749         2.31917        22.71026
     2012.06023         7.50752        22.51776
     2012.06297         7.17487        21.83200
     2012.06570        11.53821        22.71026
     2012.07118         5.98191        21.68763
     2012.07392         3.95426        21.75180
     2012.07666        12.20360        21.68763
     2012.07939        13.93895        21.64753
     2012.08213        11.51530        21.70768
     2012.08487         9.40164        21.66758
     2012.09034         2.40334        21.86408
     2012.09308         4.71169        21.81195
     2012.09582         1.50003        23.46820
     2012.09856        -3.36762        22.34532
     2012.10227         0.60841        41.39819
     2012.10398         3.71350        28.39684
     2012.10683        -0.99001        22.36136
     2012.10991        -4.06924        26.93710
     2012.11225        -0.16588        22.00043
     2012.11498         5.38146        22.12876
     2012.11772         7.72781        22.27714
     2012.12046        12.39316        22.06460
     2012.12320         6.24050        24.28229
     2012.12594         4.73585        21.99241
     2012.12867         2.04020        22.09668
     2012.13141         2.73555        22.16486
     2012.13415         5.06389        23.41206
     2012.13689         7.53624        22.07262
     2012.13968        14.08116        22.57792
     2012.14236        11.09693        22.26912
     2012.14510         4.11428        22.09267
     2012.14784        -0.26437        21.70367
     2012.15058         1.46198        21.71169
     2012.15331        -3.14568        21.50717
     2012.15605         6.55867        22.39745
     2012.15879         6.09802        22.25709
     2012.16153         4.25936        21.73576
     2012.16427         4.26571        22.16085
     2012.16700         7.02006        22.01247
     2012.16974         4.41441        21.75982
     2012.17248         7.78075        21.92825
     2012.17522         4.50710        21.85606
     2012.17796         1.20545        21.83601
     2012.18069         6.43479        26.06687
     2012.18343         1.72214        21.97637
     2012.18617         2.65649        28.59736
     2012.18891         4.21184        21.98038
     2012.19164         8.85318        21.67560
     2012.19438        11.73953        22.30923
     2012.19712        14.24188        21.73576
     2012.19986         8.96022        21.76383
     2012.20260         8.19657        22.99098
     2012.20533        15.20292        22.55385
     2012.20807         5.77627        22.09267
     2012.21081         5.69961        21.79591
     2012.21355         5.89396        21.58336
     2012.21629         7.29831        21.49113
     2012.21902         3.24265        21.44701
     2012.22176         0.48300        21.45504
     2012.22450        -4.35665        21.63149
     2012.22724        -2.47130        21.62748
     2012.22997         1.23804        21.49514
     2012.23271         1.84939        21.60342
     2012.23545         6.49874        22.02049
     2012.23819         8.88608        22.45360
     2012.24093        10.96943        21.86809
     2012.24366        11.46678        21.84403
     2012.24640         7.15913        21.67961
     2012.24914         6.59847        21.73576
     2012.25188         6.35182        24.52692
     2012.25462         3.17317        21.86408
     2012.25735         5.92751        22.61401
     2012.26009        -2.64614        22.68619
     2012.26283        -1.65979        21.51519
     2012.26557        -4.35444        22.00444
     2012.26830        -8.19110        21.55930
     2012.27104        -4.14175        22.21699
     2012.27378        -1.62740        21.49915
     2012.27652        -1.12706        21.41894
     2012.27926         1.30629        22.02450
     2012.28199         0.35564        22.59396
     2012.28473         1.21999        21.59941
     2012.28747        -3.67967        21.71971
     2012.29021        -3.97432        21.61545
     2012.29295        -5.92297        21.63550
     2012.29568        -3.91363        21.70367
     2012.29842        -0.07528        21.59941
     2012.30116         0.93407        21.78388
     2012.30390        -4.83858        21.53123
     2012.30663        -5.78424        21.87211
     2012.30937        -3.90989        23.20352
     2012.31211        -0.12654        24.61915
     2012.31485        -3.23320        23.13535
     2012.31759        -3.46885        21.82799
     2012.32032        -0.78750        21.98840
     2012.32306        -3.74015        21.72372
     2012.32580        -2.59981        21.64753
     2012.32854         1.81454        21.74378
     2012.33128         2.67689        22.21298
     2012.33401        -1.18177        22.28918
     2012.33675         0.26358        22.11673
     2012.33949        -0.93607        21.57935
     2012.34223        -5.30872        21.79591
     2012.34496        -8.13738        21.63550
     2012.34770        -3.07003        22.12074
     2012.35044        -3.85368        21.90820
     2012.35318        -0.63534        22.26511
     2012.35592         0.95601        21.45905
     2012.35865        -3.01964        21.64753
     2012.36139        -5.32629        21.57133
     2012.36413        -2.61595        21.73977
     2012.36687        -6.83260        21.43097
     2012.36961        -2.86425        21.75581
     2012.37234        -0.60791        21.98038
     2012.37508        -1.90356        21.70768
     2012.37782        -1.02421        21.99241
     2012.38056        -3.93186        21.85606
     2012.38329        -3.34552        22.02851
     2012.38603        -1.53817        22.03653
     2012.38877        -2.77982        22.44959
     2012.39151        -1.51948        22.34933
     2012.39425        -1.91813        22.14882
     2012.39698        -8.27378        21.91221
     2012.39972        -3.60143        21.59941
     2012.40246         1.83991        21.77987
     2012.40520        -3.22874        21.75982
     2012.40794        -0.47839        21.69164
     2012.41067         0.30295        21.49113
     2012.41341         0.81330        21.47910
     2012.41615         3.72665        21.59540
     2012.41889         6.21300        22.26511
     2012.42162         1.89534        22.33730
     2012.42436        -4.83931        22.86265
     2012.42710        -2.72796        21.42696
     2012.42984        -0.17262        21.61144
     2012.43258         7.53773        22.06059
     2012.43531         0.91608        21.80393
     2012.43805        -0.69957        22.05658
     2012.44079        -2.51723        21.76383
     2012.44353        -4.31288        22.05658
     2012.44626        -1.26553        22.15283
     2012.44900         1.42481        21.84804
     2012.45174        -1.30184        21.68763
     2012.45448        -4.27549        21.81596
     2012.45722         5.49686        21.69164
     2012.45995         0.67820        25.16856
     2012.46269         7.95755        22.14480
     2012.46543         0.87490        22.02049
     2012.46817        -2.36576        22.21298
     2012.47091        -3.84941        21.62347
     2012.47364        -3.16906        21.81195
     2012.47638         0.39329        21.77185
     2012.47912         2.59863        21.87612
     2012.48186         0.31898        21.73977
     2012.48459         4.30633        21.49915
     2012.48733         3.41767        21.58336
     2012.49007        -0.03398        21.74378
     2012.49281         0.31137        21.68362
     2012.49555        -3.08228        22.97092
     2012.49828        -0.16194        22.01648
     2012.50102         1.31041        21.76784
     2012.50376         1.01676        21.64753
     2012.50650         0.84310        21.61545
     2012.50924         2.18745        22.26110
     2012.51197        -3.68920        22.03653
     2012.51471        -6.58085        21.73977
     2012.51745        -3.29251        21.70367
     2012.52019        -7.10016        25.54152
     2012.52292        -2.52781        22.69020
     2012.52566         4.82253        21.72773
     2012.52840         4.64488        22.30121
     2012.53114         1.46423        21.45905
     2012.53388        -1.38842        21.73175
     2012.53661         7.29192        32.50739
     2012.53935         2.36027        27.30604
     2012.54209        10.11462        22.95087
     2012.54483         1.31496        21.79190
     2012.54757         4.41931        21.49514
     2012.55030         4.63966        21.63149
     2012.55304         9.76401        21.92424
     2012.55578         4.61835        21.70768
     2012.55852         3.09170        21.77185
     2012.56125         9.99805        22.02450
     2012.56399         1.48739        21.89617
     2012.56673         3.52774        21.90018
     2012.56947         7.64609        21.92424
     2012.57221         4.76344        21.96434
     2012.57494         5.41978        21.77586
     2012.57768         7.61613        22.10069
     2012.58042         6.25948        21.71570
     2012.58316         4.35782        22.32527
     2012.58590         4.42917        21.86408
     2012.58863         5.89252        21.76383
     2012.59137         8.47087        22.09668
     2012.59411         9.71121        21.86408
     2012.59685         9.78456        21.89617
     2012.59958         6.16591        21.74378
     2012.60232         6.09725        22.89072
     2012.60506         5.41160        22.16486
     2012.60780         9.93495        22.02049
     2012.61054         6.75530        21.47509
     2012.61327         7.81764        21.65956
     2012.61601         7.90799        21.77586
     2012.61875         6.21034        21.61545
     2012.62149         6.10468        21.75581
     2012.62423        10.97103        21.69164
     2012.62696         4.91338        21.67961
     2012.62970         7.41173        21.96033
     2012.63244         2.08707        22.41349
     2012.63518         5.42442        22.02049
     2012.63791        13.37677        21.88414
     2012.64065        11.22811        21.85205
     2012.64339        14.73046        21.69966
     2012.64613        10.31981        21.63951
     2012.64887         9.60616        21.63550
     2012.65160        11.77550        21.76784
     2012.65434        10.71485        21.74378
     2012.65708        12.52020        22.49370
     2012.65982        12.99254        22.51375
     2012.66256         6.63889        21.56732
     2012.66529         7.15924        21.57133
     2012.66803         8.03659        21.60743
     2012.67077        13.18693        22.18491
     2012.67351        11.31528        26.66039
     2012.67624         7.81663        22.05658
     2012.67898         6.09597        23.46820
     2012.68172         4.48632        21.96033
     2012.68446         6.05067        22.06460
     2012.68720         8.99302        21.70367
     2012.68993        12.80736        22.60198
     2012.69267        15.72471        22.30923
     2012.69541        10.76706        22.08465
     2012.69815         6.69640        22.11673
     2012.70089         3.25775        22.33730
     2012.70362         9.84210        22.58594
     2012.70636         8.81545        21.57534
     2012.70910         2.32479        21.65555
     2012.71184         8.99714        21.75180
     2012.71457        15.55949        21.95231
     2012.71731         8.99583        21.78388
     2012.72005         9.67518        21.80794
     2012.72279        10.72453        21.71570
     2012.72553        10.43888        21.77185
     2012.72826         7.70322        21.55930
     2012.73100        10.02457        22.54583
     2012.73374         9.52592        22.09267
     2012.73648         9.13626        21.81997
     2012.73921        10.79961        22.41750
     2012.74195        10.13196        22.16085
     2012.74469        10.57031        21.75982
     2012.74743        10.46565        22.11272
     2012.75017        10.73800        26.38769
     2012.75290         7.31735        21.62748
     2012.75564         0.06169        21.55529
     2012.75838         0.75804        21.69164
     2012.76112         4.45139        21.55529
     2012.76386         2.51574        21.70367
     2012.76659        11.03008        22.04856
     2012.76933         6.55343        26.94111
     2012.77207         5.80878        25.88239
     2012.77481         1.75312        21.84002
     2012.77754         3.18947        21.77987
     2012.78028         9.99582        21.69164
     2012.78302         9.35617        26.83684
     2012.78576         3.99551        23.48424
     2012.78850        13.97586        22.04054
     2012.79123        15.89821        21.75180
     2012.79397        11.64355        21.69565
     2012.79671         8.86590        21.98439
     2012.79945        12.70925        21.88414
     2012.80219        11.92760        21.78789
     2012.80492         4.85494        21.76784
     2012.80766         3.03629        21.76383
     2012.81040         0.22664        22.21699
     2012.81314         0.56299        21.81596
     2012.81587        -3.39367        21.89617
     2012.81861        -4.31932        22.14882
     2012.82135        -0.21497        21.85205
     2012.82409         1.69837        21.84804
     2012.82683         3.08872        21.79591
     2012.82956         3.06607        21.79190
     2012.83230         1.10442        21.75982
     2012.83504        -1.41424        24.35046
     2012.83778         2.83011        21.88414
     2012.84052         0.99546        21.86408
     2012.84325        -5.20420        22.08064
     2012.84599         6.11615        21.99241
     2012.84873         2.87550        21.79190
     2012.85147         4.05285        21.71971
     2012.85420        -5.06181        21.67961
     2012.85694        -2.99246        21.80794
     2012.85968        -0.94811        21.65956
     2012.86242        -2.74177        21.84403
     2012.86516         2.63258        21.88815
     2012.86789        -0.84407        23.07920
     2012.87063         2.47828        27.55067
     2012.87337         3.29562        21.92023
     2012.87611         3.88397        21.79992
     2012.87885         3.78732        21.64352
     2012.88158         4.82666        21.63550
     2012.88432         3.69501        21.72372
     2012.88706         0.12036        22.42954
     2012.88980         2.92971        22.08465
     2012.89253        -2.66495        21.50717
     2012.89527        -1.13560        21.64352
     2012.89801        -2.51825        22.10069
     2012.90075         3.02509        21.63149
     2012.90349        -4.17056        21.61946
     2012.90622        -1.16521        21.58737
     2012.90896        -1.45686        21.84804
     2012.91170        -1.42952        21.60342
     2012.91444        -4.91717        21.69164
     2012.91718         1.04418        21.51920
     2012.91991         4.94852        21.69966
     2012.92265        -1.55413        21.50316
     2012.92539        -2.03278        21.43097
     2012.92813        -0.15843        21.54727
     2012.93086        -3.85409        22.00846
     2012.93360        -2.29474        21.94830
     2012.93634        -4.15239        21.47509
     2012.93908        -2.66605        21.65555
     2012.94182         6.03630        21.54326
     2012.94455        11.66565        21.49915
     2012.94729         4.38200        21.95632
     2012.95003        10.94434        21.95632
     2012.95277         7.49269        21.69164
     2012.95551        11.25204        21.63149
     2012.95824        13.24538        21.72372
     2012.96098         7.83573        22.12876
     2012.96372         4.94208        21.93627
     2012.96646         4.42943        21.47910
     2012.96919        -0.01523        22.03252
     2012.97193        -3.50188        21.96434
     2012.97467        -1.97953        21.49915
     2012.97741        -1.57519        21.43899
     2012.98015        -9.01884        21.43097
     2012.98288        -7.78849        21.55930
     2012.98562        -4.53914        21.60342
     2012.98836        -0.04980        21.67961
     2012.99110         3.41255        21.51118
     2012.99384         0.78090        21.51519
     2012.99657         1.12524        21.56732
     2012.99931         1.90359        21.68763
     2013.00205         2.04894        21.66357
     2013.00479         0.65729        21.69966
     2013.00752        -0.28737        21.66758
     2013.01026        -3.52702        21.53925
     2013.01300         1.82733        21.55930
     2013.01574         5.10667        21.64352
     2013.01848         4.42002        21.66758
     2013.02121         1.03237        21.64753
     2013.02395        -3.52928        21.68763
     2013.02669        -5.03194        21.86408
     2013.02943        -7.46759        21.65154
     2013.03216        -7.39124        21.75180
     2013.03490        -7.98890        21.77185
     2013.03764        -6.39955        21.63550
     2013.04038        -4.37020        21.69966
     2013.04312        -6.84485        21.95632
     2013.04585         0.10649        22.39745
     2013.04859        -3.45216        22.34933
     2013.05133        -9.57981        21.60342
     2013.05407       -10.21347        21.70367
     2013.05681        -4.49812        21.65555
     2013.05954        -4.80877        21.80393
     2013.06228        -5.40942        22.16486
     2013.06502        -2.29508        21.97637
     2013.06776        -0.42773        21.65956
     2013.07049         2.04062        22.01648
     2013.07323         2.46696        21.63550
     2013.07597        -0.25569        21.71971
     2013.07871        -4.10934        21.67961
     2013.08145         1.48101        21.53524
     2013.08418        -0.14665        21.51920
     2013.08692        -0.54130        21.57534
     2013.08966        -3.90895        21.80393
     2013.09240         0.12539        21.61946
     2013.09514         5.95874        21.58737
     2013.09787         1.80909        22.27313
     2013.10061         3.48244        22.58193
     2013.10335        -1.62922        21.90018
     2013.10609         0.26013        21.66357
     2013.10882         2.74848        21.50316
     2013.11156        -3.51618        22.06861
     2013.11430         0.83217        21.56331
     2013.11704        -5.26548        22.24105
     2013.11978         1.08687        22.44157
     2013.12251        -3.44879        21.71971
     2013.12525        -3.62044        21.59941
     2013.12799         1.32991        21.65154
     2013.13073        -0.99475        21.57534
     2013.13347        -2.72140        21.64352
     2013.13620         0.90395        21.58737
     2013.13894         4.81130        21.55128
     2013.14168         5.66264        21.89216
     2013.14442         9.72099        23.27170
     2013.14715         7.43934        22.40547
     2013.14989        -5.95432        21.75982
     2013.15263        -4.33897        21.63149
     2013.15537       -13.67862        21.62748
     2013.15811        -8.64727        21.43899
     2013.16084        -4.83293        21.39889
     2013.16358        -7.86158        22.53380
     2013.16632        -8.43223        21.56331
     2013.16906        -1.79389        21.49113
     2013.17180       -10.14754        21.48712
     2013.17453        -9.99619        21.39087
     2013.17727        -5.26984        21.91622
     2013.18001        -9.39850        21.94028
     2013.18275        -1.51915        21.73576
     2013.18548        -3.87080        21.57935
     2013.18822        -6.13046        21.43899
     2013.19096        -8.54511        21.39087
     2013.19370        -4.19576        21.38686
     2013.19644        -9.39941        21.50717
     2013.19917       -10.50707        21.57534
     2013.20191        -8.96972        21.44300
     2013.20465        -6.94437        21.47910
     2013.20739        -6.43703        25.50142
     2013.21013        -5.18168        21.49915
     2013.21286        -6.08733        21.49514
     2013.21560        -3.75198        21.52321
     2013.21834        -4.31064        21.51118
     2013.22108        -9.60029        21.23046
     2013.22381        -8.87294        21.30665
     2013.22655       -11.95360        21.39087
     2013.22929       -10.75925        21.42295
     2013.23203       -10.23790        21.31869
     2013.23477        -8.62755        21.32270
     2013.23750        -9.99021        21.87211
     2013.24024       -13.64086        23.19550
     2013.24298       -11.51851        22.57391
     2013.24572        -4.17017        22.29720
     2013.24846        -3.96382        22.03252
     2013.25119        -8.42547        22.24105
     2013.25393       -10.89012        22.12876
     2013.25667       -10.46478        22.60198
     2013.25941        -4.78943        22.12475
     2013.26214        -5.58508        21.94028
     2013.26488        -3.76774        21.89617
     2013.26762       -10.13039        22.01648
     2013.27036       -11.36604        22.39344
     2013.27310        -3.97269        22.74234
     2013.27583        -7.82935        22.70223
     2013.27857        -3.58400        22.52979
     2013.28131        -3.18565        22.34532
     2013.28405       -11.88331        22.41750
     2013.28679       -13.93596        22.24907
     2013.28952       -14.66961        22.12876
     2013.29226       -10.03226        22.16085
     2013.29500        -8.81892        22.13277
     2013.29774        -7.56457        22.26110
     2013.30047       -13.45922        22.41349
     2013.30321       -20.62588        22.31324
     2013.30595       -14.73053        22.25709
     2013.30869       -11.51818        22.19694
     2013.31143       -11.68383        23.36794
     2013.31416        -4.20749        22.26511
     2013.31690        -4.98714        22.76640
     2013.31964        -0.91479        22.32928
     2013.32238        -4.63245        22.08064
     2013.32512         6.91790        21.79992
     2013.32785        -1.20975        21.88414
     2013.33059       -12.04840        24.84774
     2013.33333       -10.33806        22.47766
     2013.33607       -16.08471        22.20095
     2013.33880        -7.28236        22.24105
     2013.34154        -3.06802        22.26912
     2013.34428        -6.29167        22.26511
     2013.34702       -11.64932        22.46964
     2013.34976       -12.81397        22.23303
     2013.35249       -14.09363        22.31324
     2013.35523       -11.54228        22.45360
     2013.35797        -9.76593        22.21298
     2013.36071        -5.54859        22.35735
     2013.36344         0.44876        22.56990
     2013.36618        -1.17389        22.78645
     2013.36892        -2.22954        22.10069
     2013.37166        -6.56220        22.32928
     2013.37440        -7.71085        22.12876
     2013.37713        -5.36250        23.78902
     2013.37987       -10.60916        23.22357
     2013.38261       -10.08481        22.09668
     2013.38535       -10.82746        21.97236
     2013.38809       -11.12111        22.01648
     2013.39082        -8.67777        22.22100
     2013.39356        -6.45942        22.45761
     2013.39630        -1.45307        24.16198
     2013.39904        -2.07473        22.55786
     2013.40177        -3.15938        22.24907
     2013.40451        -9.35403        22.20496
     2013.40725        -2.91568        22.22902
     2013.40999        -2.55434        22.34131
     2013.41273        -2.71899        22.23303
     2013.41546        -4.16064        26.89298
     2013.41820       -11.43130        22.65812
     2013.42094        -1.82195        22.14480
     2013.42368        -7.98960        22.27714
     2013.42642        -3.89225        22.10069
     2013.42915        -2.30691        22.34532
     2013.43189        -3.15156        24.85576
     2013.43463        -3.18821        21.94028
     2013.43737        -6.18787        22.07262
     2013.44010        -2.62652        22.19694
     2013.44284        -8.78017        22.03653
     2013.44558        -6.08682        22.59797
     2013.44832       -14.44648        22.31324
     2013.45106        -5.04013        22.25308
     2013.45379        -1.55978        22.74234
     2013.45653        -7.35644        22.14480
     2013.45927        -6.80109        22.02450
     2013.46201        -2.60974        22.40547
     2013.46475        -5.28339        22.20496
     2013.46748        -4.27705        22.36136
     2013.47022        -8.00970        22.12074
     2013.47296        -0.81935        21.78789
     2013.47570        -7.34601        22.18090
     2013.47843        -1.56166        21.83200
     2013.48117         1.03969        21.71971
     2013.48391         2.14104        21.80393
     2013.48665        -3.18362        21.64352
     2013.48939        -6.33227        22.32126
     2013.49212         2.15008        28.04394
     2013.49486        -4.01158        21.74779
     2013.49760        -2.80423        22.17689
     2013.50034         2.21312        22.76640
     2013.50308         1.24647        21.86809
     2013.50581         0.63581        21.65956
     2013.50855        -4.22884        21.57133
     2013.51129        -2.08149        24.99211
     2013.51403        -6.52515        21.83200
     2013.51676        -4.18080        22.01648
     2013.51950        -4.29545        21.73977
     2013.52224        -3.07410        23.12733
     2013.52498        -1.14876        23.31982
     2013.52772        -1.59141        21.61545
     2013.53045        -5.91006        21.65956
     2013.53319       -10.35772        23.13535
     2013.53593        -4.92837        23.45617
     2013.53867        -7.54102        21.71169
     2013.54141        -5.81967        21.73576
     2013.54414        -0.16633        22.04856
     2013.54688        -1.23598        22.11272
     2013.54962        -6.54963        21.85606
     2013.55236         0.50072        21.55128
     2013.55509         0.32406        22.30522
     2013.55783        -2.43859        21.69164
     2013.56057        -5.59624        22.15283
     2013.56331        -5.51790        22.27313
     2013.56605        -2.93455        21.95632
     2013.56878        -1.67620        21.84002
     2013.57152        -2.59385        21.90018
     2013.57426        -0.58351        21.88815
     2013.57700        -1.12216        21.65956
     2013.57974        -4.31781        22.01247
     2013.58247        -2.28447        21.59139
     2013.58521        -5.17312        21.71169
     2013.58795         0.27623        22.28918
     2013.59069        -2.35342        21.91221
     2013.59342        -0.97408        22.28115
     2013.59616         3.70227        21.80393
     2013.59890        -4.41038        21.91622
     2013.60164        -7.28504        21.67560
     2013.60438        -1.47369        21.77987
     2013.60711        -2.29634        21.76784
     2013.60985        -3.16199        21.83601
     2013.61259        -3.12265        21.74378
     2013.61533         1.56370        22.40146
     2013.61807        -0.18595        22.53380
     2013.62080         2.79539        22.24506
     2013.62354         1.93774        22.32928
     2013.62628        -3.02091        21.84403
     2013.62902         2.71444        21.67961
     2013.63175        10.40878        21.72773
     2013.63449         5.05213        22.13277
     2013.63723        -0.96652        21.71570
     2013.63997         8.02282        21.93627
     2013.64271         4.51217        22.18892
     2013.64544         5.64252        21.63550
     2013.64818        -1.04413        21.86809
     2013.65092        -1.47679        21.65956
     2013.65366        -1.50144        21.65555
     2013.65639        -2.01009        21.69164
     2013.65913         0.81425        22.12475
     2013.66187        -3.04240        21.62347
     2013.66461        -3.89305        22.36938
     2013.66735         1.85730        21.81596
     2013.67008         2.88564        21.65154
     2013.67282        -1.22901        21.87612
     2013.67556         4.97234        22.46162
     2013.67830         7.28268        21.78789
     2013.68104         1.37703        21.60743
     2013.68377        -1.42662        21.63951
     2013.68651         6.78573        22.07262
     2013.68925         4.04307        21.69966
     2013.69199         3.11042        21.60342
     2013.69472        -1.07723        21.73576
     2013.69746        -4.20089        21.63951
     2013.70020         5.42446        21.66357
     2013.70294         2.10681        21.59941
     2013.70568         0.97916        21.63149
     2013.70841         3.30950        21.78789
     2013.71115        -0.31815        21.61946
     2013.71389        -0.59980        21.53925
     2013.71663        -2.16646        21.79190
     2013.71937         1.69889        21.65154
     2013.72210         5.69424        21.68763
     2013.72484         7.32059        21.70768
     2013.72758         6.37393        21.62748
     2013.73032         7.08328        21.90820
     2013.73305         0.37863        21.63149
     2013.73579        -3.91603        21.78388
     2013.73853         1.36132        21.71570
     2013.74127         3.50167        21.66357
     2013.74401        12.81402        22.23303
     2013.74674         7.84136        21.58737
     2013.74948         2.00571        21.59540
     2013.75222        -5.51994        22.83858
     2013.75496        -8.25060        21.51118
     2013.75770        -9.09125        21.84804
     2013.76043        -2.05690        21.73576
     2013.76317        -2.11555        21.80393
     2013.76591         3.16479        21.59941
     2013.76865         0.39614        21.77987
     2013.77138        -2.15251        24.49082
     2013.77412         3.51483        21.81596
     2013.77686        -0.37882        21.61946
     2013.77960        -4.86747        21.62347
     2013.78234       -11.04612        21.59941
     2013.78507        -9.64578        22.85062
     2013.78781       -12.30743        23.31982
     2013.79055        -3.69308        21.74779
     2013.79329        -6.35674        21.63951
     2013.79603         0.29861        21.55529
     2013.79876        -2.14104        21.61545
     2013.80150         1.71431        22.17689
     2013.80424        -0.66535        22.29319
     2013.80698        -4.84400        21.59139
     2013.80971        -3.81565        21.56732
     2013.81245        -2.36431        21.71971
     2013.81519        -6.64696        21.67560
     2013.81793        -7.87261        21.67159
     2013.82067        -7.32626        21.60342
     2013.82340        -3.32892        21.47509
     2013.82614         0.15043        22.05658
     2013.82888         1.31578        22.82655
     2013.83162        -1.58388        21.73977
     2013.83436         2.51547        22.40146
     2013.83709        -5.31518        21.84403
     2013.83983        -5.83583        21.92825
     2013.84257        -9.45649        21.84403
     2013.84531        -7.44314        22.09668
     2013.84804        -4.78979        21.87211
     2013.85078        -8.77945        24.62316
     2013.85352        -1.37510        21.51519
     2013.85626       -10.77975        26.11499
     2013.85900       -11.31040        21.67961
     2013.86173        -9.10806        24.02563
     2013.86447        -6.63071        21.61545
     2013.86721        -7.87636        21.57133
     2013.86995        -5.33502        21.71570
     2013.87269         1.50333        21.75982
     2013.87542        -0.18532        21.66758
     2013.87816        -4.45597        21.51118
     2013.88090        -4.12263        21.88013
     2013.88364        -4.31228        22.39745
     2013.88637        -6.57293        21.58336
     2013.88911       -12.39559        21.54326
     2013.89185       -16.32424        21.39889
     2013.89459       -15.53089        21.81997
     2013.89733        -5.50254        21.45905
     2013.90006        -8.85920        21.75180
     2013.90280        -9.71285        22.04054
     2013.90554        -8.08250        21.54326
     2013.90828        -5.10016        21.67560
     2013.91102        -6.68481        21.56732
     2013.91375        -9.12946        21.51519
     2013.91649        -7.41511        21.61545
     2013.91923       -11.52677        21.86007
     2013.92197       -17.50742        21.91622
     2013.92470       -16.03707        21.49113
     2013.92744       -14.24973        21.80794
     2013.93018       -17.05238        21.49514
     2013.93292       -15.62103        21.49113
     2013.93566       -14.94768        23.15139
     2013.93839        -7.64734        21.45103
     2013.94113       -15.19299        21.40691
     2013.94387       -10.59964        21.42295
     2013.94661       -10.64530        21.86809
     2013.94935       -10.68495        21.43498
     2013.95208        -5.52660        21.69565
     2013.95482        -4.55525        21.55930
     2013.95756        -7.78191        21.54727
     2013.96030        -8.35056        21.52321
     2013.96303       -12.39721        21.54727
     2013.96577       -13.44487        21.60743
     2013.96851        -7.24152        21.52722
     2013.97125        -5.20217        21.42696
     2013.97399       -10.15782        21.49915
     2013.97672        -9.72948        21.47509
     2013.97946       -10.05213        21.55529
     2013.98220       -12.54978        21.85606
     2013.98494        -9.24444        21.54727
     2013.98767       -15.55609        21.45103
     2013.99041       -20.66874        21.55930
     2013.99315       -22.01739        21.59139
     2013.99589       -18.34505        21.71570
     2013.99863       -18.84070        21.49915
     2014.00136       -32.70835        21.75982
     2014.00410       -10.89601        21.60743
     2014.00684       -12.50366        21.41493
     2014.00958       -19.20531        21.59139
     2014.01232       -22.11596        21.94429
     2014.01505       -12.44962        21.88815
     2014.01779       -12.13427        21.85606
     2014.02053        -8.88792        21.34275
     2014.02327        -2.13058        22.19694
     2014.02600        -0.64823        22.26511
     2014.02874        -0.47288        21.64352
     2014.03148         2.70347        21.73175
     2014.03422        -6.95019        21.42295
     2014.03696       -11.41984        21.55128
     2014.03969        -5.83749        21.68362
     2014.04243       -11.71715        22.50974
     2014.04517        -5.76880        22.49370
     2014.04791        -9.39945        21.84002
     2014.05065        -6.25210        21.40290
     2014.05338        -9.22376        21.46306
     2014.05612       -13.89541        21.47108
     2014.05886       -15.81506        21.42295
     2014.06160       -11.85772        21.55128
     2014.06433        -3.82237        22.11272
     2014.06707        -2.44302        22.09267
     2014.06981        -8.31267        21.71971
     2014.07255       -11.82433        21.57534
     2014.07529        -9.99398        21.42696
     2014.07802       -11.06563        21.53925
     2014.08076       -11.61829        21.56331
     2014.08350        -8.78594        21.55128
     2014.08624       -10.63259        21.86809
     2014.08898       -14.50124        22.40547
     2014.09171       -16.67690        22.52578
     2014.09445       -21.51055        21.65154
     2014.09719       -21.04020        21.89617
     2014.09993       -10.35186        21.64753
     2014.10266        -8.60351        22.49771
     2014.10540       -12.61616        21.99241
     2014.10814       -15.66681        21.63550
     2014.11088       -12.98747        21.97236
     2014.11362        -8.93912        21.57534
     2014.11635        -3.28577        21.59941
     2014.11909        -5.29643        21.54326
     2014.12183        -4.55808        21.69565
     2014.12457        -2.91173        21.44701
     2014.12731         4.20962        21.55128
     2014.13004         4.49296        21.52722
     2014.13278         0.70831        22.42151
     2014.13552        -0.03634        26.35561
     2014.14099        -6.05865        21.58336
     2014.14373       -12.40030        21.78388
     2014.14647       -14.68795        22.07262
     2014.14921       -13.44961        21.62748
     2014.15195       -13.77126        21.65555
     2014.15468        -8.20591        21.95632
     2014.15742        -8.16657        22.70624
     2014.16016       -10.75622        23.76095
     2014.16290       -20.68087        22.10069
     2014.16564       -19.14952        21.70367
     2014.16837       -15.98318        22.39344
     2014.17111       -14.54183        22.38542
     2014.17385       -14.55848        22.34933
     2014.17659       -11.32514        22.00444
     2014.17932       -11.06079        22.90676
     2014.18206        -5.41944        22.60599
     2014.18480        -4.27909        21.77586
     2014.18754        -9.16975        22.10069
     2014.19028        -9.90640        22.02450
     2014.19301        -3.73505        21.79190
     2014.19575        -6.71171        22.05658
     2014.19849        -7.61536        21.88414
     2014.20123        -9.92501        21.99642
     2014.20397       -10.47866        21.86809
     2014.20670       -10.10232        21.74378
     2014.20944       -10.34497        22.01648
     2014.21218        -9.49662        21.70768
     2014.21492       -11.48128        22.06059
     2014.21765       -18.11093        22.48568
     2014.22039       -16.15658        21.75982
     2014.22313       -18.31723        21.66758
     2014.22587       -18.71089        21.68362
     2014.22861       -14.59454        21.75180
     2014.23134        -6.67119        21.92424
     2014.23408       -11.80985        21.96434
     2014.23682       -10.36250        21.65154
     2014.23956       -13.38615        22.09267
     2014.24230       -17.03180        21.71169
     2014.24503       -19.75946        21.75581
     2014.24777       -12.03211        22.80249
     2014.25051       -14.63976        21.78789
     2014.25325       -14.79142        21.69565
     2014.25598        -8.52907        22.32928
     2014.25872       -11.58272        22.24907
     2014.26146        -7.07237        22.39344
     2014.26420       -14.48003        21.92023
     2014.26694        -7.09768        21.86007
     2014.26967        -9.22633        21.66357
     2014.27241        -9.69799        21.98840
     2014.27515       -12.36464        22.49370
     2014.27789       -14.88829        25.67787
     2014.28062       -13.91794        21.97637
     2014.28336       -11.47560        21.64352
     2014.28610       -11.38925        22.22501
     2014.28884       -14.88290        22.59396
     2014.29158       -16.37756        22.20496
     2014.29431       -11.46721        22.02049
     2014.29705       -11.24786        22.02450
     2014.29979       -14.57451        21.74779
     2014.30253       -13.29217        22.56990
     2014.30527        -8.82182        21.73576
     2014.30800        -9.14747        21.81195
     2014.31074       -11.84612        21.93226
     2014.31348        -9.88778        21.79190
     2014.31622       -11.28843        21.85606
     2014.31895        -8.76708        21.80393
     2014.32169       -15.17974        22.21699
     2014.32443       -19.57639        22.40547
     2014.32717       -17.03104        25.73000
     2014.32991       -11.52569        21.84804
     2014.33264       -17.42035        21.82398
     2014.33538       -17.05400        21.87211
     2014.33812       -12.03265        23.49627
     2014.34086       -13.07431        21.87211
     2014.34360       -12.29496        21.98038
     2014.34633       -11.97461        22.38542
     2014.34907       -12.08526        25.45730
     2014.35181        -5.68392        22.63807
     2014.35455       -10.19957        22.70223
     2014.35728       -16.23422        21.91622
     2014.36002       -18.87588        21.83200
     2014.36276       -21.25953        21.95231
     2014.36550       -16.15818        22.13277
     2014.36824       -17.87983        22.16887
     2014.37097       -16.14449        21.99241
     2014.37371       -15.28914        21.62748
     2014.37645       -10.09579        22.10871
     2014.37919        -6.63145        22.20095
     2014.38193       -10.14410        22.22100
     2014.38466       -11.15375        22.22100
     2014.38740       -12.53340        22.08465
     2014.39014       -11.45206        22.49771
     2014.39288       -10.64671        22.17288
     2014.39561       -11.97436        22.14882
     2014.39835       -15.31602        22.13678
     2014.40109       -13.27567        22.12475
     2014.40383       -15.99032        21.80393
     2014.40657       -12.59397        22.29720
     2014.40930       -11.57763        22.20095
     2014.41204       -11.67928        21.82799
     2014.41478        -8.57393        21.88013
     2014.41752       -11.97259        21.75982
     2014.42026        -5.01524        21.92424
     2014.42299       -10.69789        21.74378
     2014.42573       -15.48954        21.67159
     2014.42847       -10.46520        21.77586
     2014.43121       -11.94985        21.81997
     2014.43394        -8.50650        22.85463
     2014.43668        -5.17416        21.75180
     2014.43942        -9.52081        21.78388
     2014.44216       -14.18646        21.69164
     2014.44490       -11.20211        22.06059
     2014.44763        -7.09177        22.09668
     2014.45022       -12.28231        22.57792
     2014.45658       -10.96128        31.53690
     2014.45859       -17.09838        21.77185
     2014.46132       -12.45703        21.73175
     2014.46406        -9.05968        21.94429
     2014.46680       -11.63034        21.86809
     2014.46954       -13.16499        21.77185
     2014.47227        -8.89564        21.61545
     2014.47501       -10.39930        21.59941
     2014.47775        -6.20395        21.90018
     2014.48049        -5.76460        21.88013
     2014.48323       -12.46325        21.72372
     2014.48596        -9.55291        21.77586
     2014.48870        -4.57656        21.69966
     2014.49144        -6.15321        21.49915
     2014.49418       -14.78687        21.49113
     2014.49692       -24.10352        21.51118
     2014.49965       -13.37717        21.54326
     2014.50239       -12.17782        22.38542
     2014.50513        -5.20048        21.81596
     2014.50787        -7.68713        21.37082
     2014.51060       -13.93378        21.51519
     2014.51334        -8.99344        21.49915
     2014.51608       -10.92509        21.96835
     2014.51882       -10.63874        21.92825
     2014.52156        -0.55639        21.95231
     2014.52429        -7.70605        21.43097
     2014.52703        -4.12370        21.71971
     2014.52977       -11.51035        21.56732
     2014.53251        -8.52901        21.48311
     2014.53525        -5.20766        21.65555
     2014.53798        -2.12631        21.42295
     2014.54072        -3.68996        22.66213
     2014.54346        -3.97462        21.76383
     2014.54620        -4.12227        21.54727
     2014.54893        -3.97092        21.37483
     2014.55167        -3.86258        21.54727
     2014.55441        -5.57523        21.60342
     2014.55715        -8.86088        21.84804
     2014.55989        -8.34953        21.68362
     2014.56262        -3.00919        21.48311
     2014.56536        -6.03484        21.61144
     2014.56810        -9.84049        21.43498
     2014.57084       -12.57115        21.47509
     2014.57357       -10.00980        21.54326
     2014.57631        -5.77145        21.63550
     2014.57905       -14.13010        21.60743
     2014.58179       -12.27776        21.91221
     2014.58453        -7.72441        22.08064
     2014.58726        -9.24806        22.75838
     2014.59000        -8.29072        22.08465
     2014.59274        -4.51537        22.18090
     2014.59548        -7.52002        22.99499
     2014.59822        -6.22667        22.34933
     2014.60095        -7.42233        22.24105
     2014.60369        -6.55998        22.06059
     2014.60643       -10.82763        21.98840
     2014.60917        -7.06629        21.85205
     2014.61190        -8.99794        22.33730
     2014.61464        -1.66659        22.10069
     2014.61738        -5.55724        22.58594
     2014.62012        -3.70990        22.60599
     2014.62286        -1.53855        22.13277
     2014.62559        -0.57020        22.13277
     2014.62833        -2.47486        21.89216
     2014.63107        -2.02251        22.52177
     2014.63381        -3.22116        22.20897
     2014.63655        -7.63081        22.05658
     2014.63928        -9.41247        21.93226
     2014.64202       -12.24412        21.57534
     2014.64476       -10.57777        21.80794
     2014.64750        -4.41143        22.38141
     2014.65023        -2.08008        22.41349
     2014.65297        -2.22073        25.24476
     2014.65571        -0.34938        22.38542
     2014.65845         3.53496        21.83200
     2014.66119         0.85531        21.93627
     2014.66392         3.92966        21.94429
     2014.66666         6.37200        21.99642
     2014.66940        -0.36865        21.87612
     2014.67214        -4.27630        21.58336
     2014.67488        -6.84395        21.80794
     2014.67761       -10.07761        21.84002
     2014.68035        -5.10626        21.96434
     2014.68309        -8.08291        21.96835
     2014.68583       -11.29657        21.72372
     2014.68856       -13.29822        21.52722
     2014.69130       -15.88687        21.72773
     2014.69404       -10.34252        22.29319
     2014.69678       -10.45618        22.34933
     2014.69952       -13.21183        22.23303
     2014.70225        -7.62648        21.73977
     2014.70499        -6.00714        21.77586
     2014.70773        -2.14679        21.81997
     2014.71047        -3.23644        21.96033
     2014.71321        -1.45709        21.63149
     2014.71594        -2.02375        22.86265
     2014.71868       -10.41840        21.61144
     2014.72142        -5.62705        21.58737
     2014.72416        -0.78971        21.81596
     2014.72689        -3.96236        21.84804
     2014.72963        -1.55201        22.17689
     2014.73237        -4.81966        22.29720
     2014.73511        -9.34832        21.67560
     2014.73785       -12.90097        21.72372
     2014.74058        -8.64462        21.55128
     2014.74332        -2.45228        21.91221
     2014.74606         0.94407        21.95632
     2014.74880        -4.56358        21.98439
     2014.75154        -7.08023        22.02049
     2014.75427        -5.64289        21.78388
     2014.75701       -10.08754        22.07262
     2014.75975        -5.95219        21.88013
     2014.76249        -8.45485        22.34131
     2014.76522        -6.37850        21.59941
     2014.76796        -0.34115        22.02450
     2014.77070        -9.05180        22.58995
     2014.77344        -3.98446        22.24105
     2014.77618        -3.50311        22.40547
     2014.77891         0.98124        21.57935
     2014.78165        -2.40442        21.68362
     2014.78439        -3.19207        21.74378
     2014.78713        -1.30672        21.73977
     2014.78987       -10.03437        21.54727
     2014.79260       -10.25603        21.71169
     2014.79534        -3.81968        22.02450
     2014.79808        -0.95533        22.22100
     2014.80082        -2.95999        22.98697
     2014.80355        -5.90964        22.15283
     2014.80629        -6.52729        22.15684
     2014.80903        -1.77094        22.30923
     2014.81177        -1.28360        21.67159
     2014.81451        -5.59125        21.75180
     2014.81724         1.67110        21.73175
     2014.81998        -0.37056        22.23704
     2014.82272        -1.80421        22.60198
     2014.82546        -7.44586        21.74779
     2014.82820       -10.54051        21.51118
     2014.83093        -5.63717        22.12074
     2014.83367        -6.61882        21.73977
     2014.83641        -6.05147        21.82799
     2014.83915        -4.74213        22.07262
     2014.84188        -2.00978        24.21812
     2014.84462       -12.57543        22.61802
     2014.84736        -5.57608        21.79190
     2014.85010        -8.51874        21.97236
     2014.85284       -10.51239        21.93226
     2014.85557        -8.46504        21.99642
     2014.85831       -17.16970        23.44414
     2014.86105       -25.37535        21.72372
     2014.86379       -22.87400        21.77185
     2014.86653       -21.91665        21.88414
     2014.86926       -22.28531        22.04856
     2014.87200       -17.79096        22.40146
     2014.87474       -17.46261        22.56187
     2014.87748       -15.77927        22.00444
     2014.88021       -13.17292        22.00444
     2014.88295       -12.69757        21.91622
     2014.88569        -6.98422        22.79447
     2014.88843        -2.96588        22.61401
     2014.89117         1.34347        22.43756
     2014.89390        -9.04118        22.38943
     2014.89664        -6.34984        22.40146
     2014.89938       -13.27449        22.33329
     2014.90212       -18.42814        22.14480
     2014.90485       -21.37479        21.62347
     2014.90759       -16.11545        21.74378
     2014.91033       -11.51910        21.88013
     2014.91307        -9.65475        21.81195
     2014.91581       -10.83441        21.84002
     2014.91854        -9.13706        21.81997
     2014.92128       -14.89871        21.64753
     2014.92402       -10.27036        21.73175
     2014.92676       -15.28802        21.85205
     2014.92950       -23.39167        22.16887
     2014.93223       -21.97832        21.90419
     2014.93497       -20.39098        22.21298
     2014.93771       -16.92963        22.10871
     2014.94045       -12.72728        21.92825
     2014.94318        -5.87993        22.36136
     2014.94592        -9.87559        22.46162
     2014.94866       -18.54424        21.49915
     2014.95140       -23.29589        21.56732
     2014.95414       -17.42755        22.00846
     2014.95687       -10.42720        21.81195
     2014.95961        -8.66585        21.71570
     2014.96235       -11.84650        21.18635
     2014.96509        -5.83416        22.00043
     2014.96783        -9.02881        21.40691
     2014.97056        -6.86346        22.06059
     2014.97330       -13.48012        24.28630
     2014.97604       -17.45077        21.77987
     2014.97878       -14.82242        21.85606
     2014.98151        -9.42507        21.82799
     2014.98425       -15.51373        22.30923
     2014.98699       -12.22638        21.36681
     2014.98973       -23.02503        21.27056
     2014.99247       -29.66369        21.76784
     2014.99520       -25.97434        21.80794
     2014.99794       -11.66899        21.42696
     2015.00342       -20.03630        21.45504
     2015.00616       -28.34895        21.49514
     2015.00889       -23.88560        23.56044
     2015.01163       -18.43026        21.99241
     2015.01437       -25.30691        21.85205
     2015.01711       -20.04056        23.58851
     2015.01984       -21.06521        21.66758
     2015.02258       -15.17587        21.96434
     2015.02532       -15.80452        21.66758
     2015.02806       -18.07617        21.61144
     2015.03080       -11.83583        21.76383
     2015.03353       -16.05048        21.80393
     2015.03627       -14.07013        21.55128
     2015.03901        -9.64878        21.67961
     2015.04175        -3.38144        21.71570
     2015.04449        -8.84109        21.73175
     2015.04722        -6.34674        21.72773
     2015.04996        -9.32640        21.60743
     2015.05270       -12.68605        22.55786
     2015.05544       -12.38870        21.76383
     2015.05817        -8.96535        21.77185
     2015.06091        -8.10501        21.97236
     2015.06365        -3.16266        22.30923
     2015.06639        -4.44731        21.75180
     2015.06913        -7.85597        22.27313
     2015.07186       -14.43062        21.77987
     2015.07460       -13.03727        21.69966
     2015.07734       -18.28492        21.59941
     2015.08008       -20.83058        21.72372
     2015.08282       -21.73423        21.65555
     2015.08555       -18.38188        21.75982
     2015.08829       -14.16953        22.89473
     2015.09103       -13.99819        21.63550
     2015.09377       -15.41184        21.52321
     2015.09650       -14.48549        21.58737
     2015.09924        -3.84915        22.24907
     2015.10198        -6.79280        22.25709
     2015.10472       -14.60645        21.56732
     2015.10746       -17.30410        21.55128
     2015.11019       -26.52576        21.64352
     2015.11293       -19.59941        21.95632
     2015.11567       -16.94406        21.66758
     2015.11841       -20.13572        21.53925
     2015.12115       -21.56037        21.70367
     2015.12388       -18.60902        21.49113
     2015.12662       -22.51067        21.45905
     2015.12936       -16.58033        22.22902
     2015.13210       -16.02598        22.21298
     2015.13483       -14.56563        21.90018
     2015.13757       -20.90529        22.14882
     2015.14031       -25.58894        21.45905
     2015.14305       -20.26259        21.58737
     2015.14579       -15.51424        23.25164
     2015.14852       -18.41590        23.17144
     2015.15126       -17.96355        21.59540
     2015.15400       -19.40520        21.44300
     2015.15674       -18.42486        21.41894
     2015.15948       -16.82451        21.66357
     2015.16221       -12.47916        23.36393
     2015.16495       -18.39481        24.31437
     2015.16769       -17.75147        21.59941
     2015.17043       -11.52012        21.58737
     2015.17316       -10.23277        22.04054
     2015.17590       -14.26743        22.90676
     2015.17864        -9.95008        21.96033
     2015.18138       -10.22673        21.73977
     2015.18412        -9.14138        21.49514
     2015.18685       -12.59604        21.57534
     2015.18959       -13.26369        21.69164
     2015.19233       -11.76234        22.35735
     2015.19507       -11.25900        21.59941
     2015.19780        -6.05465        21.57534
     2015.20054       -11.91530        21.62748
     2015.20328       -16.34995        21.64753
     2015.20602       -12.12161        29.87664
     2015.20876       -15.37326        23.00702
     2015.21149       -18.63191        23.30378
     2015.21423       -17.33457        22.48167
     2015.21697       -17.57422        22.05658
     2015.21971       -16.84687        22.61401
     2015.22245       -14.37852        21.47509
     2015.22518       -14.50218        21.57935
     2015.22792       -17.93883        21.61144
     2015.23066       -15.66248        21.75581
     2015.23340       -13.08814        22.16887
     2015.23613       -13.77979        22.38141
     2015.23887       -11.33244        23.41607
     2015.24161        -9.84009        22.85463
     2015.24435       -11.19875        22.87468
     2015.24709       -14.67040        22.44157
     2015.24982       -16.97505        21.85205
     2015.25256       -18.07971        21.78388
     2015.25530       -18.08236        21.75982
     2015.25804       -19.54401        21.75581
     2015.26078       -14.19866        21.65154
     2015.26351       -14.06932        21.68763
     2015.26625       -13.14797        21.66357
     2015.26899       -15.36562        21.92825
     2015.27173        -2.02728        24.64321
     2015.27446        -2.30293        24.03766
     2015.27720        -7.46158        21.93627
     2015.27994       -11.59923        21.82398
     2015.28268       -13.66689        21.97236
     2015.28542       -16.95154        23.96548
     2015.28815       -21.13919        24.05370
     2015.29089       -13.70885        22.87067
     2015.29363       -17.53050        21.85205
     2015.29637       -18.02215        21.75982
     2015.29911       -12.48280        21.62748
     2015.30184        -9.52646        22.65010
     2015.30458       -12.21511        21.79591
     2015.30732         3.45324        21.47910
     2015.31006        -6.35142        21.32671
     2015.31279       -19.86907        21.07807
     2015.31553       -19.58572        21.21843
     2015.31827       -19.75037        21.39889
     2015.32101       -14.52603        21.82398
     2015.32375       -13.57868        21.57133
     2015.32648       -12.62433        22.04054
     2015.32922       -12.04399        21.87612
     2015.33196       -12.07864        21.26254
     2015.33470       -16.95229        21.35879
     2015.33744       -19.12694        21.37884
     2015.34017       -15.11760        21.38285
     2015.34291       -23.68325        22.44959
     2015.34565       -17.97890        21.31067
     2015.34839       -17.66756        21.39087
     2015.35112       -23.31121        21.36681
     2015.35386       -19.16086        21.81596
     2015.35660       -19.72451        21.61545
     2015.35934       -19.44517        23.01905
     2015.36208       -14.17482        23.28774
     2015.36481       -16.04147        21.22244
     2015.36755       -10.79513        21.30264
     2015.37029       -16.36778        21.35879
     2015.37303       -22.73643        21.11416
     2015.37577       -19.68308        21.46707
     2015.37850       -22.39174        22.10069
     2015.38124       -19.79939        21.26254
     2015.38398       -14.80604        21.33874
     2015.38672       -19.61170        21.02995
     2015.38945       -21.00335        21.10614
     2015.39219       -12.20200        21.11015
     2015.39493       -10.44065        21.27457
     2015.39767       -16.32431        21.31468
     2015.40041       -14.50696        21.25051
     2015.40314       -20.79561        21.61144
     2015.40588       -24.24927        21.34275
     2015.40862       -18.50092        21.36681
     2015.41136       -15.26357        21.26254
     2015.41410       -13.61022        21.12218
     2015.41683       -17.23488        21.08208
     2015.41957       -17.06253        21.17031
     2015.42231       -14.84918        21.15426
     2015.42505       -13.75584        22.33329
     2015.42778       -16.34449        21.32270
     2015.43052       -11.46214        21.08208
     2015.43326       -14.94679        23.39601
     2015.43600       -13.04445        21.39087
     2015.43874       -11.13210        21.39488
     2015.44147        -8.24675        21.97236
     2015.44421       -15.89741        21.05401
     2015.44695       -15.69606        21.21041
     2015.44969       -22.56771        22.07262
     2015.45243       -22.90536        21.88815
     2015.45516       -16.07302        21.33072
     2015.45790       -20.12867        22.09267
     2015.46064       -14.74732        22.10871
     2015.46338       -15.09998        21.75581
     2015.46611       -15.32563        21.54326
     2015.46885       -16.84728        21.41092
     2015.47144       -14.45382        22.60599
     2015.48356       -12.62122        51.48807
     2015.48528       -18.83520        21.47509
     2015.48802       -19.10385        21.87612
     2015.49076       -17.24950        21.25853
     2015.49349       -11.80616        21.68362
     2015.49623       -13.90581        21.87612
     2015.49897       -14.77546        21.99642
     2015.50171       -14.79012        22.00444
     2015.50444       -11.93277        21.27457
     2015.50718       -21.41942        21.84403
     2015.50992       -15.91807        21.40290
     2015.51266       -15.46073        21.31869
     2015.51540        -8.30338        21.42295
     2015.51813        -8.98903        21.53123
     2015.52087        -9.06869        21.39087
     2015.52361        -9.33634        22.63005
     2015.52635       -16.91499        21.69565
     2015.52908        -6.92364        23.98152
     2015.53182       -10.30330        21.55930
     2015.53456        -7.36595        21.50316
     2015.53730        -8.06560        21.57534
     2015.54004       -14.62526        21.92825
     2015.54277       -14.06891        21.91622
     2015.54551        -3.24956        22.30121
     2015.54825        -8.73221        21.86007
     2015.55099        -5.15387        22.23704
     2015.55373        -7.97252        21.77185
     2015.55646        -9.01317        22.49370
     2015.55894        -9.01689        23.28774
     2015.56293       -11.07697        50.22483
     2015.56468        -5.22113        21.90820
     2015.56741        -7.67978        22.44157
     2015.57015        -5.27544        22.45761
     2015.57289       -11.05209        22.49771
     2015.57563       -10.29974        21.93226
     2015.57837        -5.23040        21.76784
     2015.58110        -7.15605        21.78789
     2015.58384        -7.33870        21.84002
     2015.58658        -8.09135        21.82398
     2015.58932        -5.76301        22.08064
     2015.59206       -11.00366        21.80393
     2015.59479        -7.63631        22.01247
     2015.59753       -11.55897        22.48969
     2015.60027        -6.71762        22.83457
     2015.60301       -10.11327        22.49370
     2015.60574        -6.92592        21.99642
     2015.60848        -4.94158        22.00043
     2015.61122        -2.22323        22.01648
     2015.61396        -7.95888        22.48969
     2015.61943       -10.49819        23.23560
     2015.62217        -8.67784        23.09524
     2015.62491        -1.23949        22.24907
     2015.62765        -5.43415        21.54326
     2015.63039         2.81320        22.82655
     2015.63312        -6.28445        21.58737
     2015.63586        -4.22911        21.51118
     2015.63860        -9.74976        21.44300
     2015.64134       -11.61641        24.00558
     2015.64407       -10.99206        21.29462
     2015.64681       -14.10372        21.75180
     2015.64955       -16.19137        22.78645
     2015.65229       -14.45402        28.34872
     2015.65503       -14.59568        27.00928
     2015.65776        -6.16933        21.98439
     2015.66050        -1.53698        21.54326
     2015.66324         1.04837        21.35879
     2015.66598         0.96771        21.61144
     2015.66872        -4.99594        21.70367
     2015.67145       -11.71559        21.51920
     2015.67419       -15.21925        21.63550
     2015.67693       -15.78490        21.26655
     2015.67967       -11.27655        21.49514
     2015.68240        -7.07920        22.00444
     2015.68514        -8.77886        22.41349
     2015.68788        -9.25951        29.15880
     2015.69062       -13.62316        21.15426
     2015.69336        -4.56682        26.05884
     2015.69609        -4.64547        21.78789
     2015.69883        -2.98612        21.72372
     2015.70157       -10.21977        21.33874
     2015.70431       -11.96243        21.25452
     2015.70705       -10.03808        21.32270
     2015.70978        -4.24873        21.29061
     2015.71252        -2.95239        21.84403
     2015.71526        -4.25104        22.22902
     2015.71800        -6.07669        24.96003
     2015.72073        -4.40434        21.28259
     2015.72347       -12.43600        21.44300
     2015.72621       -10.40965        21.43498
     2015.72895       -15.50230        21.78789
     2015.73169       -10.77496        21.73175
     2015.73442       -14.61561        21.49113
     2015.73716        -6.01026        21.47108
     2015.73990        -5.72091        21.81195
     2015.74264        -6.09057        21.94830
     2015.74538        -6.73422        22.34933
     2015.74811       -14.90887        22.38943
     2015.75085       -20.24553        22.06861
     2015.75359       -23.73518        21.71570
     2015.75633       -14.02483        22.51375
     2015.75906       -14.17848        22.55385
     2015.76180       -16.54914        21.47509
     2015.76454       -15.28779        26.50800
     2015.76728       -12.90744        22.97493
     2015.77002        -3.33610        21.98038
     2015.77275         0.05325        21.93627
     2015.77549        -5.48540        21.48311
     2015.77823        -7.21405        22.05658
     2015.78097        -5.77571        22.06059
     2015.78371        -9.11836        21.65956
     2015.78644       -10.35401        21.70367
     2015.78918       -16.27267        21.67560
     2015.79192        -6.94832        21.69966
     2015.79466        -9.35997        23.42810
     2015.79739       -10.52762        21.53123
     2015.80013       -12.90428        22.36537
     2015.80287        -7.69393        21.87211
     2015.80561       -12.20358        21.61545
     2015.80835       -12.33524        21.45504
     2015.81108       -17.82589        21.49514
     2015.81382       -17.27854        21.45905
     2015.81656       -13.61419        21.60342
     2015.81930       -16.49485        21.62347
     2015.82203       -12.73550        21.79591
     2015.82477        -9.72015        21.51920
     2015.82751        -7.73681        21.71570
     2015.83025        -4.58746        21.56732
     2015.83299       -11.31311        21.73576
     2015.83572       -15.46376        21.50316
     2015.83846       -17.15042        24.58707
     2015.84120       -17.61707        23.40403
     2015.84394       -15.52972        21.78789
     2015.84668       -13.49637        21.82398
     2015.84941       -10.45303        24.71540
     2015.85215       -12.64168        21.63550
     2015.85489       -12.13133        22.84259
     2015.85763       -10.15899        22.28918
     2015.86036       -13.79564        22.05257
     2015.86310        -9.86529        21.76784
     2015.86584        -6.30194        21.86408
     2015.86858       -14.28460        22.02049
     2015.87132       -14.19025        21.75180
     2015.87405       -17.44190        21.97637
     2015.87679       -12.53256        21.76784
     2015.87953       -11.69321        22.07262
     2015.88227       -14.15886        21.88414
     2015.88501       -24.47751        21.79992
     2015.88774       -20.63817        21.97637
     2015.89048       -13.14682        21.66758
     2015.89322       -14.76547        21.73977
     2015.89596       -18.32513        21.79190
     2015.89869       -19.68178        21.68362
     2015.90143       -21.33843        21.85606
     2015.90417       -21.22408        22.51375
     2015.90691       -20.76274        21.78388
     2015.90965       -19.69939        21.78789
     2015.91238       -16.03004        22.73031
     2015.91512       -16.10570        22.03252
     2015.91786       -16.36435        21.80393
     2015.92060       -10.05000        21.85205
     2015.92334       -11.54765        21.65555
     2015.92607       -19.25631        21.72372
     2015.92881       -17.11196        21.80393
     2015.93155       -16.28461        22.20095
     2015.93429       -14.26127        22.24907
     2015.93702       -12.18292        21.94028
     2015.93976       -13.06457        22.40948
     2015.94250       -16.98622        22.28516
     2015.94524       -18.98288        21.86809
     2015.94798       -12.34253        21.89216
     2015.95071        -9.40918        21.33874
     2015.95345       -14.34184        21.31468
     2015.95619       -18.85649        21.53925
     2015.95893       -21.42414        22.05257
     2015.96167       -16.73279        21.60342
     2015.96440       -15.30445        21.35879
     2015.96714       -13.26910        25.81823
     2015.96988       -12.15975        25.15252
     2015.97262        -8.98941        21.38686
     2015.97535       -12.02706        21.27056
     2015.97809       -17.22871        21.29061
     2015.98083       -20.77336        21.40290
     2015.98357       -25.33202        21.35478
     2015.98631       -24.48067        21.35077
     2015.98904       -19.75932        21.36681
     2015.99178       -18.86898        21.43097
     2015.99452       -19.79363        21.51118
     2015.99726       -19.67028        21.97236
     2016.00000       -12.07693        21.81596
     2016.00273       -22.48959        21.36280
     2016.00547       -19.65124        21.36681
     2016.00821       -16.95489        21.29061
     2016.01095       -15.16355        21.50717
     2016.01368       -20.66220        21.45905
     2016.01642       -22.38385        21.71971
     2016.01916       -21.28850        22.21699
     2016.02190       -18.11216        21.87612
     2016.02464       -15.87681        22.00444
     2016.02737       -17.58446        21.41493
     2016.03011       -13.58412        21.41894
     2016.03285       -12.45677        21.23848
     2016.03559       -15.36142        21.17833
     2016.03833       -18.73007        22.41349
     2016.04106       -16.01673        21.36280
     2016.04380       -14.33838        21.50717
     2016.04654       -14.89603        21.40290
     2016.04928       -17.45969        21.45504
     2016.05201       -23.74334        25.40918
     2016.05475       -14.93299        22.00444
     2016.05749       -14.52264        21.55128
     2016.06023       -18.67230        21.21041
     2016.06297       -18.77595        21.21442
     2016.06570       -21.13060        21.93627
     2016.06844       -14.80126        22.10871
     2016.07118       -11.08691        22.22501
     2016.07392        -8.52956        21.89216
     2016.07666        -3.28421        22.14079
     2016.07939        -3.28287        21.91622
     2016.08213       -13.90752        22.30522
     2016.08487       -16.52717        21.92825
     2016.08761       -19.40883        21.89216
     2016.09034       -21.31848        22.40948
     2016.09308       -13.37713        21.84002
     2016.09582       -18.58478        21.97236
     2016.09856       -18.40944        22.11673
     2016.10130       -26.95209        21.87612
     2016.10403       -22.44974        22.08866
     2016.10677       -19.31440        21.92424
     2016.10951       -22.49905        21.77185
     2016.11225       -19.98370        22.06059
     2016.11498       -20.71035        22.18892
     2016.11772       -22.68201        21.79190
     2016.12046       -18.38266        21.91221
     2016.12320       -23.94031        21.74779
     2016.12594       -18.72397        22.72630
     2016.12867       -18.74962        22.30121
     2016.13141       -12.34027        21.98439
     2016.13415       -13.56992        21.75982
     2016.13689       -19.99458        21.59139
     2016.13963       -20.23523        21.62347
     2016.14236       -26.10388        21.71570
     2016.14510       -27.61854        21.73576
     2016.14784       -24.53419        21.64352
     2016.15058       -16.41384        21.65555
     2016.15331       -14.00949        21.98038
     2016.15605       -17.27215        21.55529
     2016.15879       -19.83380        22.09668
     2016.16153       -20.31545        22.03252
     2016.16427       -20.32811        21.88414
     2016.16700       -22.53776        21.53123
     2016.16974       -24.86841        21.51118
     2016.17248       -23.45306        21.98038
     2016.17522       -20.17572        21.54727
     2016.17699       -14.26806        40.51994
     2016.18069        -5.82002        22.60198
     2016.18343        -9.89468        22.56588
     2016.18617       -16.43233        21.60342
     2016.18891       -10.67498        21.45103
     2016.19164       -16.06863        21.87612
     2016.19438       -10.03729        21.14624
     2016.19712       -14.06494        21.21442
     2016.19986       -14.56059        22.02851
     2016.20260       -19.00925        22.71026
     2016.20533       -19.62890        22.64609
     2016.20807       -24.30355        22.58193
     2016.21081       -25.96320        21.98439
     2016.21355       -21.23986        23.41607
     2016.21629       -22.03151        21.25853
     2016.21902       -19.73016        21.24650
     2016.22176       -17.83582        21.36681
     2016.22450       -24.15547        22.50573
     2016.22724       -21.77712        21.26254
     2016.22992       -20.33234        21.69966
     2016.23271       -19.46243        21.29863
     2016.23545       -17.39608        21.55128
     2016.23825       -20.44816        22.02450
     2016.24093       -16.24739        22.15283
     2016.24366       -19.52204        22.10470
     2016.24640       -20.61369        21.35879
     2016.24914       -23.01034        21.36280
     2016.25188       -10.60300        21.56732
     2016.25462       -19.18665        21.77185
     2016.25735       -21.34330        21.22645
     2016.26009       -21.60196        21.21442
     2016.26283       -23.70961        21.50717
     2016.26557       -23.61726        21.55930
     2016.26830       -15.84191        21.84804
     2016.27104       -19.05857        21.40691
     2016.27378       -20.75422        21.18635
     2016.27652       -17.83087        21.50717
     2016.27926       -21.23753        21.74779
     2016.28199       -21.44418        22.55385
     2016.28473       -20.55983        22.26511
     2016.28747       -21.97348        21.30264
     2016.29021       -25.67814        21.59139
     2016.29295       -22.20779        21.84804
     2016.29568       -19.81744        21.77586
     2016.29842       -12.93810        22.30522
     2016.30116       -21.94175        22.07663
     2016.30390       -28.02140        21.45103
     2016.30663       -20.41505        21.55930
     2016.30937       -22.68371        21.67560
     2016.31211       -22.38036        21.61545
     2016.31485       -18.70801        21.48712
     2016.31759       -18.50167        21.39087
     2016.32032       -23.07232        21.31468
     2016.32306       -26.89097        21.63951
     2016.32580       -24.78262        21.94028
     2016.32854       -23.82328        21.59941
     2016.33128       -16.94493        21.79992
     2016.33401       -21.81458        22.22100
     2016.33675       -17.55524        21.94028
     2016.33949       -21.78589        22.36938
     2016.34223       -21.63154        21.83601
     2016.34496       -20.38319        22.23303
     2016.34770       -13.18885        22.22100
     2016.35044       -12.06450        27.57874
     2016.35318       -17.91015        22.13277
     2016.35592       -32.49181        21.67159
     2016.35865       -33.30946        21.37082
     2016.36139       -28.08111        21.44701
     2016.36413       -20.28776        21.43097
     2016.36687       -17.72642        21.54326
     2016.36961        -9.80807        21.54727
     2016.37234        -5.95672        21.73977
     2016.37508       -16.56338        21.57133
     2016.37782       -26.74903        21.71971
     2016.38056       -19.01468        21.70367
     2016.38329       -22.36333        21.37483
     2016.38603       -25.54199        21.49113
     2016.38877        -9.34564        21.53925
     2016.39151       -24.41829        21.45103
     2016.39425       -22.79995        21.48311
     2016.39698       -14.36660        21.72372
     2016.39972        -9.93025        21.58336
     2016.40246       -18.43190        21.70768
     2016.40520       -26.04056        21.50316
     2016.40794       -24.88321        21.45504
     2016.41067       -27.47786        21.42696
     2016.41341       -24.93252        21.51920
     2016.41615       -21.36417        21.36681
     2016.41889       -20.53982        21.41493
     2016.42162       -13.61547        21.71169
     2016.42436       -25.73313        21.57534
     2016.42710       -23.18478        21.61946
     2016.42984       -23.34243        22.50974
     2016.43258       -16.49909        21.43899
     2016.43531       -12.96474        21.48712
     2016.43805       -12.92239        21.41092
     2016.44079       -20.25304        21.64753
     2016.44353       -20.44970        21.38686
     2016.44626       -21.16235        21.74378
     2016.44900       -19.53500        21.31067
     2016.45174       -13.98866        21.63149
     2016.45448       -18.27131        21.66357
     2016.45722       -16.98696        21.50316
     2016.45995       -19.18361        21.60743
     2016.46269       -22.72927        21.53925
     2016.46543       -17.79992        21.89216
     2016.46817       -18.24057        21.49514
     2016.47091       -17.30523        21.39087
     2016.47364       -21.06488        21.49514
     2016.47638       -18.70953        21.73175
     2016.47912       -17.27718        21.89216
     2016.48186       -16.16884        21.65555
     2016.48459       -21.47949        21.35879
     2016.48733       -26.00514        21.37884
     2016.49007       -20.46480        21.43899
     2016.49281       -19.71745        21.91221
     2016.49555       -17.02210        22.00846
     2016.49828       -22.16075        21.57133
     2016.50102       -18.63841        21.59139
     2016.50376       -15.50906        21.67961
     2016.50650       -15.90071        21.86408
     2016.50924       -18.67437        21.57133
     2016.51197       -21.77502        21.49113
     2016.51471       -15.37467        21.72372
     2016.51745       -19.10532        23.35190
     2016.52019       -19.56398        21.59139
     2016.52292       -20.80063        21.69164
     2016.52566       -17.94028        22.00444
     2016.52840       -22.32794        22.44157
     2016.53114       -20.15259        21.49915
     2016.53388       -22.71424        22.00043
     2016.53661       -15.36889        22.23303
     2016.53935       -21.95055        21.85606
     2016.54209       -22.23720        21.49113
     2016.54483       -16.65085        21.46306
     2016.54757       -15.21451        21.57133
     2016.55030       -13.08016        23.45216
     2016.55304       -16.37381        21.92424
     2016.55578       -16.23146        21.98038
     2016.55852       -16.82312        21.48311
     2016.56125       -12.64677        21.81195
     2016.56399       -19.61942        22.19694
     2016.56673       -17.70108        21.84804
     2016.56947       -20.89873        22.22501
     2016.57221       -13.64338        21.55930
     2016.57494       -17.85203        22.20897
     2016.57768       -13.24569        21.60342
     2016.58042       -12.27834        21.49514
     2016.58316       -16.46799        21.79190
     2016.58590       -18.11165        21.73175
     2016.58863       -17.36930        24.53093
     2016.59137       -18.24295        21.94429
     2016.59411       -16.45460        21.69565
     2016.59685       -17.97126        22.02450
     2016.59958       -16.66391        21.93226
     2016.60232       -20.17456        21.79591
     2016.60506       -14.93221        22.47766
     2016.60780       -16.05187        22.19694
     2016.61054       -17.57152        21.62748
     2016.61327       -22.05517        21.59540
     2016.61601       -16.83483        21.58737
     2016.61875       -17.45548        21.67961
     2016.62149       -16.22013        21.45103
     2016.62423       -13.03478        22.27714
     2016.62696       -18.44144        21.44701
     2016.62970       -20.48309        21.83200
     2016.63244       -26.10274        22.31324
     2016.63518       -17.81440        21.52321
     2016.63791        -8.55605        21.52722
     2016.64065       -10.54270        21.49514
     2016.64339       -20.70835        21.48712
     2016.64613       -24.69001        21.78388
     2016.64887       -24.18366        21.59540
     2016.65160       -15.54931        22.57792
     2016.65434       -18.83797        21.51118
     2016.65708       -25.03662        21.39889
     2016.65982       -24.12527        21.47108
     2016.66256       -25.18292        21.49915
     2016.66529       -21.24858        21.65956
     2016.66803       -21.46523        22.54583
     2016.67077       -18.68988        22.09267
     2016.67351       -21.90254        22.48969
     2016.67624       -20.21219        21.93226
     2016.67898       -18.73384        21.49113
     2016.68172       -18.79449        21.59139
     2016.68446       -15.93515        22.46964
     2016.68720       -16.73980        22.89874
     2016.68993       -15.48845        21.93627
     2016.69267       -15.40911        22.28516
     2016.69541       -21.53376        21.46707
     2016.69815       -26.32841        21.52722
     2016.70089       -13.95706        21.51519
     2016.70362       -12.87272        22.24907
     2016.70636       -18.39737        23.06717
     2016.70910       -14.88802        23.05514
     2016.71184       -15.35168        21.41894
     2016.71457       -11.75733        21.37483
     2016.71731       -14.17798        21.69565
     2016.72005       -20.16463        21.67961
     2016.72279       -17.65529        21.57935
     2016.72553       -18.25494        21.87612
     2016.72826       -17.96259        22.24506
     2016.73100       -20.39025        21.45103
     2016.73374       -16.07590        21.59139
     2016.73648       -17.34955        21.82398
     2016.73921       -12.36020        22.37740
     2016.74195       -19.97286        21.80794
     2016.74469       -24.57151        23.51632
     2016.74743       -24.12216        21.48311
     2016.75017        -9.99882        21.42295
     2016.75290       -19.65847        21.46707
     2016.75564       -16.25912        21.32270
     2016.75838       -17.42377        22.20496
     2016.76112       -24.80743        21.58336
     2016.76386       -24.13708        21.31067
     2016.76659       -22.54273        21.28660
     2016.76933       -20.30039        21.37884
     2016.77207       -23.09004        21.30665
     2016.77481       -22.40069        21.42295
     2016.77754       -23.05334        21.27858
     2016.78028       -24.31600        21.34676
     2016.78302       -25.70065        24.59108
     2016.78576       -18.71530        21.71169
     2016.78850       -14.08596        21.31869
     2016.79123       -16.09161        22.02450
     2016.79397       -14.29826        21.35879
     2016.79671       -20.26691        21.33874
     2016.79939       -27.10314        21.74378
     2016.80219       -21.10522        21.59941
     2016.80492       -22.03087        21.65154
     2016.80766       -18.45153        21.45504
     2016.81040       -24.34418        21.51519
     2016.81314       -29.67183        21.66758
     2016.81587       -27.67148        22.64609
     2016.81861       -23.15714        22.12074
     2016.82135       -20.86279        21.50717
     2016.82409       -21.50144        21.28259
     2016.82683       -23.84610        22.67817
     2016.82956       -21.96575        21.47108
     2016.83230       -20.34240        21.26254
     2016.83504       -24.27605        21.39087
     2016.83778       -22.06071        21.26254
     2016.84052       -24.37336        22.41750
     2016.84325       -22.71401        21.47108
     2016.84599       -20.29367        21.55529
     2016.84873       -19.10832        21.50316
     2016.85147       -22.58697        21.54326
     2016.85420       -22.43962        21.41493
     2016.85694       -25.22028        21.83200
     2016.85968       -29.19193        21.86809
     2016.86242       -26.33158        21.42696
     2016.86516       -16.83824        21.49915
     2016.86789       -21.50989        21.67560
     2016.87063       -16.37254        21.56732
     2016.87337       -15.05419        21.42696
     2016.87611       -22.16385        21.45905
     2016.87885       -27.31750        21.49514
     2016.88158       -34.24715        21.35478
     2016.88432       -30.24381        21.30665
     2016.88706       -26.69546        21.31869
     2016.88980       -22.58011        21.46306
     2016.89253       -25.42176        21.47108
     2016.89527       -23.40142        21.42696
     2016.89801       -21.45807        21.71570
     2016.90075       -25.28972        21.41493
     2016.90349       -24.02738        21.91622
     2016.90622       -15.89403        21.84403
     2016.90896       -14.68868        21.41894
     2016.91170       -18.68433        21.37082
     2016.91444       -21.99199        21.86408
     2016.91718       -27.66764        21.88815
     2016.91991       -33.18829        22.02450
     2016.92265       -21.57195        21.52321
     2016.92539       -23.89460        21.49915
     2016.92813       -34.03125        21.45905
     2016.93086       -34.41390        21.39889
     2016.93360       -34.51756        21.50316
     2016.93634       -35.91521        21.58737
     2016.93908       -34.78086        21.90419
     2016.94182       -26.47452        21.43097
     2016.94455       -32.21317        21.40691
     2016.94729       -25.19682        21.71169
     2016.95003       -30.28447        21.93226
     2016.95277       -30.44513        21.87612
     2016.95551       -33.10978        21.66758
     2016.95824       -27.87743        21.51920
     2016.96098       -25.84509        21.44300
     2016.96372       -24.39474        21.56331
     2016.96646       -20.16839        21.55529
     2016.96919       -19.78004        21.40290
     2016.97193       -18.03270        21.65555
     2016.97467       -15.67735        21.42696
     2016.97741       -21.31200        21.57935
     2016.98015       -24.24066        21.41092
     2016.98288       -27.95331        21.57534
     2016.98562       -19.91596        21.55529
     2016.98836       -14.86561        21.44300
     2016.99110       -13.25827        21.35077
     2016.99384       -19.52092        21.36681
     2016.99657       -19.53057        21.53925
     2016.99931       -18.43923        21.62748
     2017.00205       -25.49588        21.51118
     2017.00479       -29.63653        21.31067
     2017.00752       -35.46818        21.37884
     2017.01026       -32.86284        21.33473
     2017.01300       -24.76549        21.37483
     2017.01574       -27.18014        21.37483
     2017.01848       -35.34880        21.30665
     2017.02121       -31.21845        21.36280
     2017.02395       -26.44810        21.29462
     2017.02669       -25.42575        21.53925
     2017.02943       -22.27041        21.45905
     2017.03216       -29.96706        21.33473
     2017.03490       -26.17671        21.29462
     2017.03764       -29.26837        21.48712
     2017.04038       -23.02002        21.46306
     2017.04312       -20.30267        21.52321
     2017.04585       -11.80932        22.39745
     2017.04859        -7.53198        22.30121
     2017.05133       -10.72563        21.56732
     2017.05407        -8.28928        21.45905
     2017.05681       -17.71494        21.92424
     2017.05954       -26.60659        21.54727
     2017.06228       -25.61224        21.41894
     2017.06502       -27.99089        21.39087
     2017.06776       -25.07555        21.60342
     2017.07049       -23.34420        21.40691
     2017.07323       -26.45385        21.36280
     2017.07597       -29.65551        21.53524
     2017.07871       -23.89716        21.45103
     2017.08145       -27.21681        21.64352
     2017.08418       -34.09946        21.61946
     2017.08692       -33.53812        21.64352
     2017.08966       -35.71277        21.45103
     2017.09240       -33.51942        21.41894
     2017.09514       -27.87708        21.58737
     2017.09787       -28.50773        21.35478
     2017.10061       -27.42338        21.24650
     2017.10335       -32.57003        21.68763
     2017.10609       -30.83169        21.65956
     2017.10882       -18.33334        21.45504
     2017.11156       -16.47499        21.36681
     2017.11430       -25.83065        21.27056
     2017.11704       -30.97930        21.23447
     2017.11978       -26.00695        21.25051
     2017.12251       -27.06860        21.61946
     2017.12525       -14.23826        21.80393
     2017.12799       -10.10691        21.53925
     2017.13073       -16.60856        21.45905
     2017.13347       -18.12122        21.33473
     2017.13620       -19.26387        21.37082
     2017.13894       -21.10252        21.96434
     2017.14168       -27.10317        21.50316
     2017.14442       -26.72083        21.38686
     2017.14715       -31.10148        21.35478
     2017.14989       -30.36813        21.19838
     2017.15263       -19.24479        21.25853
     2017.15537       -20.60944        21.43899
     2017.15811       -20.76309        21.82398
     2017.16084       -23.53274        21.25853
     2017.16358       -33.91340        21.60342
     2017.16632       -24.77005        21.62748
     2017.16906       -23.17170        21.95632
     2017.17180       -25.41736        21.54326
     2017.17453       -26.90201        21.37483
     2017.17727       -27.18366        21.65956
     2017.18001       -28.22131        21.34676
     2017.18275       -28.09497        21.50717
     2017.18548       -36.55862        21.47108
     2017.18822       -38.29527        21.62347
     2017.19096       -35.45893        21.31067
     2017.19370       -29.82558        21.27858
     2017.19644       -24.02623        21.73175
     2017.19917       -21.92688        21.50717
     2017.20191       -21.61754        21.90820
     2017.20465       -27.74519        21.90419
     2017.20739       -26.03084        21.27457
     2017.21013       -19.97350        21.32671
     2017.21286       -21.51915        21.35077
     2017.21560       -29.79180        21.27457
     2017.21834       -28.15145        21.48311
     2017.22108       -19.42911        21.49113
     2017.22381       -25.73276        21.71169
     2017.22655       -20.63841        22.47365
     2017.22929       -25.45407        21.28660
     2017.23203       -28.98372        28.01586
     2017.23477       -26.89937        24.28630
     2017.23750       -29.14402        21.37884
     2017.24024       -32.88768        21.39087
     2017.24298       -32.03733        21.48311
     2017.24572       -31.38798        21.97236
     2017.24846       -32.37864        21.50717
     2017.25119       -29.25129        21.29462
     2017.25393       -32.75894        21.38686
     2017.25667       -35.69859        24.17401
     2017.25941       -29.62525        21.50316
     2017.26214       -27.58890        22.10069
     2017.26488       -22.38855        21.31869
     2017.26762       -22.43121        22.91478
     2017.27036       -27.67386        21.70768
     2017.27310       -32.24851        21.98038
     2017.27583       -34.43716        21.66357
     2017.27857       -40.33082        21.31067
     2017.28131       -33.60047        21.14624
     2017.28405       -34.75612        21.19838
     2017.28679       -35.66578        21.38285
     2017.28952       -37.75543        21.33072
     2017.29226       -32.15308        21.19838
     2017.29500       -36.15973        21.15827
     2017.29774       -31.21339        22.07663
     2017.30047       -37.80704        22.22501
     2017.30321       -32.78669        21.33473
     2017.30595       -34.14935        24.00959
     2017.30869       -35.59200        22.34933
     2017.31143       -32.30765        21.50316
     2017.31416       -33.49230        21.28259
     2017.31690       -28.80296        21.45103
     2017.31964       -30.54961        21.75180
     2017.32146       -36.60931        40.70040
     2017.33444       -30.68623        49.65537
     2017.33607       -32.88353        21.51920
     2017.33880       -28.64818        21.36280
     2017.34154       -23.01383        21.86408
     2017.34428       -32.93349        21.58336
     2017.34702       -30.60114        21.42295
     2017.34976       -28.75579        22.04856
     2017.35215       -32.28586        24.48280
     2017.37294       -26.69269       143.25948
     2017.37440       -36.41167        21.42295
     2017.37713       -37.60732        22.02851
     2017.37987       -33.06897        21.92023
     2017.38261       -34.59162        22.25709
     2017.38535       -34.14228        21.46707
     2017.38809       -32.03293        21.34275
     2017.39082       -34.73458        21.52321
     2017.39356       -24.64024        21.58336
     2017.39630       -28.56589        21.36280
     2017.39904       -28.26254        21.27457
     2017.40172       -31.69076        22.22100
     2017.40423       -33.17770        38.63510
     2017.40685       -30.48049        50.78226
     2017.40999       -29.16715        34.19572
     2017.41273       -27.47681        21.39488
     2017.41546       -30.49446        21.23848
     2017.41820       -26.72811        21.93627
     2017.42094       -28.52076        21.55930
     2017.42368       -32.47742        21.38686
     2017.42642       -32.65507        21.24249
     2017.42915       -31.95172        21.73977
     2017.43189       -31.67438        21.75180
     2017.43463       -26.88103        23.27972
     2017.43737       -25.65668        21.35879
     2017.44010       -29.79433        21.19838
     2017.44284       -25.58999        21.45103
     2017.44558       -26.96564        21.27457
     2017.44832       -25.36329        21.38285
     2017.45106       -23.85895        21.44300
     2017.45379       -23.84560        21.78789
     2017.45653       -26.01425        22.35334
     2017.45927       -28.58590        21.35879
     2017.46201       -25.57256        21.52722
     2017.46426       -28.01152        26.19519
     2017.47662       -41.04578        41.32200
     2017.47843       -33.68847        22.40146
     2017.48117       -27.74013        21.59941
     2017.48391       -24.20978        21.48311
     2017.48665       -24.24043        21.57133
     2017.48939       -25.09809        21.44701
     2017.49212       -28.56974        21.54727
     2017.49486       -31.81839        21.73576
     2017.49754       -24.78061        21.98439
     2017.50034       -26.91370        21.80393
     2017.50308       -27.87935        21.53925
     2017.50581       -25.84500        21.33473
     2017.50855       -27.61066        21.32671
     2017.51129       -37.94831        21.72773
     2017.51397       -35.74053        22.10871
     2017.51676       -27.97861        21.84804
     2017.51950       -22.07827        22.52177
     2017.52224       -24.58692        22.02049
     2017.52498       -30.13057        21.34676
     2017.52772       -29.93323        21.85205
     2017.53045       -37.01988        21.60342
     2017.53319       -32.72053        21.90820
     2017.53593       -30.59118        23.04712
     2017.53867       -27.09784        24.28229
     2017.54141       -20.78449        22.84259
     2017.54414       -31.29414        21.16228
     2017.54688       -29.68280        21.96033
     2017.54962       -30.20545        21.36681
     2017.55236       -26.03810        21.63951
     2017.55509       -27.27275        22.02450
     2017.55783       -27.92741        21.27457
     2017.56057       -30.35306        21.38285
     2017.56331       -23.62471        21.49514
     2017.56605       -24.30037        21.66357
     2017.56878       -31.34602        21.75982
     2017.57152       -24.18767        21.44701
     2017.57432       -28.04075        21.86809
     2017.57700       -33.95598        21.55128
     2017.57974       -27.76963        21.73175
     2017.58247       -29.68828        21.48311
     2017.58521       -34.68094        21.55930
     2017.58795       -30.33759        21.78388
     2017.59069       -36.59324        23.72887
     2017.59342       -28.77089        21.58336
     2017.59616       -32.83155        21.55930
     2017.59890       -28.97920        21.50717
     2017.60164       -25.69985        22.18090
     2017.60438       -34.31051        21.80393
     2017.60711       -33.13516        21.73175
     2017.60985       -29.83381        21.81596
     2017.61259       -25.89746        21.65956
     2017.61533       -22.11212        21.82398
     2017.61807       -21.09777        21.76784
     2017.62080       -20.42842        21.60342
     2017.62354       -26.91308        21.44701
     2017.62628       -21.00273        23.17545
     2017.62902       -23.14738        22.88270
     2017.63175       -26.69703        21.63550
     2017.63449       -28.12969        21.61545
     2017.63723       -26.15934        21.49915
     2017.63997       -28.83099        22.65010
     2017.64271       -17.93265        23.27972
     2017.64544       -22.84830        22.16486
     2017.64818       -25.72095        21.93627
     2017.65092       -24.56160        21.45103
     2017.65366       -22.40726        21.75982
     2017.65639       -26.75891        21.58737
     2017.65913       -27.70456        21.77185
     2017.66187       -24.24222        22.19694
     2017.66461       -25.10787        24.02563
     2017.66735       -19.93952        22.17288
     2017.67008       -21.84717        21.74378
     2017.67282       -24.78083        21.97637
     2017.67556       -28.54548        21.31468
     2017.67830       -28.70113        21.36280
     2017.68104       -27.21779        21.21442
     2017.68376       -23.36633        23.42409
     2017.68651       -23.86009        26.12301
     2017.68925       -19.57374        21.86007
     2017.69199       -17.11240        21.51118
     2017.69472       -23.15705        21.29462
     2017.69746       -24.03070        22.04054
     2017.70020       -21.33936        22.89874
     2017.70294       -22.13801        22.62604
     2017.70568       -30.48666        22.41750
     2017.70841       -23.49031        21.64753
     2017.71115       -20.50097        21.73175
     2017.71389       -19.88762        21.57935
     2017.71663       -18.36127        21.59540
     2017.71937       -21.19893        21.68763
     2017.72210       -28.59958        21.35077
     2017.72484       -29.41723        21.26254
     2017.72758       -22.89188        21.37884
     2017.73020       -20.48368        27.99982
     2017.73305       -23.54419        22.91077
     2017.73579       -31.03684        21.88815
     2017.73853       -19.23450        22.55786
     2017.74127       -30.89515        28.04394
     2017.74401       -19.74480        21.53123
     2017.74669       -25.16602        22.11673
     2017.74971       -32.14583        34.72106
     2017.75245       -31.95048        59.68510
     2017.75496       -28.15941        32.92847
     2017.75770       -28.67407        21.73175
     2017.76043       -15.57972        59.82947
     2017.76317       -20.12337        21.75982
     2017.76591       -18.56802        21.66357
     2022.28430        67.41767        46.37496
     2022.28610        61.27512        22.80650
     2022.28884        62.69046        22.60198
     2022.29158        64.42681        21.97236
     2022.29431        65.21116        21.96835
     2022.29705        69.42751        21.75982
     2022.29979        73.79785        21.73175
     2022.30253        72.32720        22.56990
     2022.30527        70.57955        22.48167
     2022.30800        71.18989        22.52578
     2022.31074        67.29624        22.13277
     2022.31348        69.40159        22.37339
     2022.31622        63.75894        22.18090
     2022.31895        61.43928        22.89473
     2022.32169        73.50663        22.63807
     2022.32443        68.14098        21.82398
     2022.32717        61.23932        22.24105
     2022.32991        63.63467        21.72372
     2022.33264        62.09402        22.71026
     2022.33538        67.87437        22.96290
     2022.33812        71.33071        22.91077
     2022.34063        66.78878        24.30234
     2022.34457        71.12809        45.68118
     2022.34633        76.90175        22.28115
     2022.34907        75.85810        22.10871
     2022.35181        74.00645        21.84002
     2022.35455        75.09680        22.28918
     2022.35728        73.98714        22.59797
     2022.36002        71.48849        22.60599
     2022.36276        71.38384        22.55786
     2022.36550        69.03618        22.12876
     2022.36824        70.00353        22.50974
     2022.37097        65.48088        22.74234
     2022.37371        62.60923        22.69421
     2022.37645        71.54757        22.42552
     2022.37919        73.68692        23.35190
     2022.38193        62.04327        23.12331
     2022.38466        62.29561        22.10470
     2022.38740        58.43496        22.50573
     2022.39014        68.85331        22.14079
     2022.39288        72.39566        22.47766
     2022.39561        69.28200        22.32126
     2022.39835        72.27835        22.66213
     2022.40109        71.70670        22.57391
     2022.40383        78.04704        23.67272
     2022.40657        72.85639        22.63807
     2022.40930        69.19474        23.26367
     2022.41204        69.09209        22.65812
     2022.41478        71.73443        22.23303
     2022.41752        67.18578        22.32126
     2022.42026        57.42613        22.21699
     2022.42299        78.64647        22.14882
     2022.42573        67.70982        21.98840
     2022.42847        74.66117        21.95231
     2022.43121        68.63552        22.62604
     2022.43394        75.20886        22.46162
     2022.43668        67.68921        22.03653
     2022.43942        73.56456        22.02851
     2022.44216        75.98290        22.18491
     2022.44490        81.27225        22.87869
     2022.44763        75.94560        21.75180
     2022.45037        68.72895        21.86809
     2022.45311        63.81129        22.31725
     2022.45585        73.61164        22.68218
     2022.45859        58.00299        21.92424
     2022.46132        66.80533        22.01648
     2022.46406        71.25568        22.70624
     2022.46680        71.34103        22.55385
     2022.46954        71.41038        22.16085
     2022.47227        57.47472        22.00846
     2022.47501        76.29007        21.81596
     2022.47775        61.13042        22.24506
     2022.48049        66.68976        21.89617
     2022.48323        76.01711        22.76640
     2022.48596        78.48246        22.36537
     2022.48870        69.36381        21.81997
     2022.49144        72.40915        22.45360
     2022.49418        70.41250        22.73833
     2022.49692        65.08485        22.30923
     2022.49965        63.21219        22.96691
     2022.50239        52.23454        21.93226
     2022.50513        76.61689        24.19005
     2022.50787        85.09424        23.11529
     2022.51060        68.97758        22.15283
     2022.51334        65.40793        23.92938
     2022.51608        58.44628        22.25709
     2022.51882        60.99962        21.93226
     2022.52156        74.50297        22.13678
     2022.52429        81.25532        22.42954
     2022.52703        70.78067        22.70223
     2022.52977        80.38801        21.80794
     2022.53251        70.72736        22.11272
     2022.53525        74.63971        21.88414
     2022.53798        72.95605        21.93226
     2022.54072        71.53840        21.90820
     2022.54346        79.09475        22.67817
     2022.54620        81.06110        23.21956
     2022.54893        82.86944        21.84804
     2022.55167        84.23979        21.89216
     2022.55441        79.75714        21.85205
     2022.55715        84.05648        22.12876
     2022.55989        76.17483        21.73576
     2022.56262        70.96618        21.71971
     2022.56536        59.34253        21.70367
     2022.56810        77.97287        21.67961
     2022.57084        78.78022        21.83200
     2022.57357        90.90957        23.52033
     2022.57631        72.13591        21.67560
     2022.57905        76.46326        22.24506
     2022.58179        97.47361        22.75437
     2022.58453        88.97696        22.94686
     2022.58726        78.33330        22.61802
     2022.59000        82.68665        22.25709
     2022.59274        74.56700        21.88013
     2022.59548        81.27834        22.77442
     2022.59822        78.58369        22.31725
     2022.60095        68.17704        22.96290
     2022.60369        74.31239        22.18090
     2022.60643        76.02173        21.81596
     2022.60917        85.10108        22.48969
     2022.61190        85.73843        21.98439
     2022.61464        81.87277        22.06059
     2022.61738        90.35012        21.96835
     2022.62012        83.30147        22.19293
     2022.62286        80.77982        21.75581
     2022.62559        80.28516        21.88013
     2022.62833        81.08751        22.18090
     2022.63107        82.13586        21.92825
     2022.63381        84.78320        21.79992
     2022.63655        78.39455        21.47108
     2022.63928        79.72290        21.67961
     2022.64202        83.12125        23.31581
     2022.64476        78.66159        23.24362
     2022.64750        82.26694        22.21699
     2022.65023        86.30229        22.29319
     2022.65297        94.51563        22.56990
     2022.65571        90.29398        22.27714
     2022.65845        86.32533        22.59797
     2022.66119        91.55068        22.35735
     2022.66392        93.68302        21.88013
     2022.66666        88.18737        22.26912
     2022.66940        88.04572        21.65154
     2022.67488        91.44441        25.19262
     2022.67761        95.47176        22.66614
     2022.68035        88.51611        21.69966
     2022.68583        86.18180        22.24506
     2022.68856        86.33915        22.22100
     2022.69130        89.82049        22.76239
     2022.69404        85.71284        22.38542
     2022.69678        82.53919        21.95632
     2022.69952        78.85054        21.88414
     2022.70225        83.02588        22.40146
     2022.70499        74.81423        22.81051
     2022.70773        87.11958        22.34933
     2022.71047        88.83392        21.58336
     2022.71321        92.17127        21.70367
     2022.71594        90.70562        21.84002
     2022.71868        82.51197        21.53524
     2022.72142        88.42131        21.80794
     2022.72416        85.46566        21.99241
     2022.72689        93.76501        22.27714
     2022.73237        91.34170        21.94429
     2022.73511        80.23105        21.41894
     2022.73785        82.47040        22.16085
     2022.74058        89.83474        22.57391
     2022.74332        91.51709        22.72229
     2022.74606        83.45444        21.88013
     2022.74880        87.06279        21.88815
