# ================= DQRFIT RESULTS ================
# INPUT FILE: series/BCNS.rad
# OUTPUT: LDETRENDED
# FILTER FUNCTION: f(t)
# f(t)=+line(t)+annual(t)+jumps(t)
# line(t)=+P 1+P 2*t
# annual(t)=+P 3*sin(2*pi*t+P 4)
# jumps(t)=+P 5*heav(t-2010.0706  )+P 6*heav(t-2012.1381  )+P 7*heav(t-2012.6297  )
# heav(t)=(t<0?0:1)
# TOTAL OBSERVATIONS MTOT= 3958
# INITIAL TIME INTERVAL= 2022.7350 - 2009.0048 = 13.7302
# TOTAL OBSERVATIONS AFTER PREFILTER M= 3885
# TIME-SPAN= 2022.7350 - 2009.2129 = 13.5221
# OBSERVATIONS: USED M=  3885 REJECTED MTOT-M=    73 %USED=   98.1556
# N=  7 PARAMETERS
# MAXSIG= 175.00000
# MAXRES=  49.54449
# SCALE FACTOR FOR LENGTHS: SCL=  10.00000
# SCALE FACTOR FOR SIGMAS: SCLSIG=   1.00000
# CHI^2=   4557.659 DOF=  3878 CHI^2/DOF=   1.17526
# RMS=      6.479 SDEV=      6.479 MEAN=    0.08721
#  P #       PARAMETER +-    SIGMA %error PARAMETER NAME
# P 1 =       278.63472 +-   98.053  35.19 YZERO                              
# P 2 =        -0.23440 +-    0.049  20.82 SLOPE                              
# P 3 =         3.79872 +-    0.142   3.74 ANNUAL AMPLITUDE                   
# P 4 =        -2.65152 +-    0.047   1.76 ANNUAL PHASE                       
# P 5 =       165.18797 +-    0.445   0.27 OFFSET 2010.0706                   
# P 6 =       -66.76606 +-    0.555   0.83 OFFSET 2012.1381                   
# P 7 =        98.13823 +-    0.553   0.56 OFFSET 2012.6297                   
#       T            LDETRENDED       SIG_OBS
     2009.21286        11.20236        14.93665
     2009.21560         8.66400         7.48133
     2009.21834         5.78164         8.00278
     2009.22108        12.69728         6.85148
     2009.22381        10.71393         7.98002
     2009.22655         0.19457         7.25042
     2009.22929         1.76421         8.08517
     2009.23203         4.47785         6.06334
     2009.23448        12.73443         6.83413
     2009.23842        -4.51765        10.67508
     2009.24372        -2.50041         9.00774
     2009.24572         1.27306         6.14031
     2009.24846        -4.33630         6.12838
     2009.25119         0.90134         6.26823
     2009.25393         4.28299         7.00650
     2009.25589        17.33745         9.39910
     2009.26292         4.41009         9.13241
     2009.26488        10.45755         6.10887
     2009.26762        15.09519         6.12296
     2009.27036         8.01984         6.11212
     2009.27310         3.68348         6.13597
     2009.27583         7.41512         6.10995
     2009.27857        -0.54124         6.17175
     2009.28131         6.61540         6.19993
     2009.28371         7.22896         6.90676
     2009.28679         4.61169         6.82654
     2009.28952        17.75133         9.47390
     2009.29169         6.31083        10.29998
     2009.30125         2.37208         8.93727
     2009.30321         0.73254         6.33219
     2009.30595         6.31918         9.74384
     2009.30869         1.72982         6.28449
     2009.31143         7.96946         6.09478
     2009.31416         8.45610         6.14573
     2009.31690         0.71475         6.07526
     2009.31964         0.19939         6.14139
     2009.32238        10.59903         6.19777
     2009.32512         2.36867         6.24980
     2009.32785         5.25531         6.21620
     2009.33059         5.28295         5.92566
     2009.33333        10.24060         6.00805
     2009.33607         0.76124         6.25631
     2009.33880         7.00388         6.04925
     2009.34154        -7.51248         6.06334
     2009.34428         0.02816         6.02756
     2009.34702         6.60880         5.99829
     2009.34976         5.03045         6.06659
     2009.35249         0.99409         6.03407
     2009.35523        -0.61227         6.04491
     2009.35797        -3.61663         5.96902
     2009.36036         5.52093         7.01517
     2009.36344         5.99666         6.18042
     2009.36618         0.21430         6.14790
     2009.36892         7.75594         6.20427
     2009.37166         4.76858         6.14356
     2009.37440         6.29722         6.13706
     2009.37713        -0.26714         6.20861
     2009.37987         2.57851         6.32786
     2009.38261        14.01315         6.19018
     2009.38535         5.11079         6.16308
     2009.38809         1.21643         6.09586
     2009.39082         0.42907         6.11538
     2009.39630         5.52536         6.01347
     2009.39904         7.74700         6.21511
     2009.40177         9.81364         6.02214
     2009.40451         6.90328         6.01672
     2009.40725         7.13092         6.02214
     2009.40999         4.13556         6.07418
     2009.41273         2.66821         6.09695
     2009.41546         3.70885         6.17717
     2009.41820         3.07649         6.03407
     2009.42094         4.97913         6.05358
     2009.42368         4.70777         6.08068
     2009.42642        -4.79058         6.09911
     2009.42916         4.67306         6.16416
     2009.43189         0.50470         6.03624
     2009.43463         5.30634         5.97336
     2009.43737         4.35898         6.02214
     2009.44010         2.21562         6.04708
     2009.44284         6.85827         6.17392
     2009.44558         2.82691         6.04816
     2009.44832         3.28855         6.00913
     2009.45106         4.77519         6.01998
     2009.45379         0.11683         6.16524
     2009.45653         5.16647         6.06117
     2009.45921         1.77710         6.30292
     2009.46167         4.52168         6.97289
     2009.46475         9.15540         6.37339
     2009.46748         3.14804         6.36689
     2009.47022         6.62468         6.09911
     2009.47296         8.34332         6.15223
     2009.47570         3.61497         6.15007
     2009.47843         4.14761         6.20861
     2009.48117        20.95325         6.27799
     2009.48391         4.58589         6.15982
     2009.48665        -5.84147         6.47963
     2009.48939       -10.25282         7.98761
     2009.49167         5.43271         7.54963
     2009.49760         1.83210         6.13923
     2009.49994         7.28465         7.37184
     2009.50262         8.63828         7.35883
     2009.50581         4.69603         6.11212
     2009.50855         5.06167         6.21620
     2009.51078         3.99319         7.67864
     2009.51397         7.52794         6.80052
     2009.51642         6.54951         7.16478
     2009.51950         9.86823         5.99396
     2009.52177        -8.45623         7.55614
     2009.53319         3.68344         6.56961
     2009.53593         2.50409         6.15766
     2009.53867         4.35273         6.15007
     2009.54141         5.10937         6.12080
     2009.54414        -1.13999         6.26715
     2009.54688         3.15665         6.14356
     2009.54962         1.82829         6.13272
     2009.55236        12.13094         6.09044
     2009.55509        18.22758         6.08177
     2009.55783         9.52522         6.12513
     2009.56057         8.48386         6.38098
     2009.56331         4.12950         6.31810
     2009.56605         2.11314         6.44169
     2009.56878         4.38679         6.08394
     2009.57152         9.10343         6.23788
     2009.57426         5.38207         6.15440
     2009.57700        14.45171         6.36689
     2009.57974         7.01235         6.23354
     2009.58247         4.57399         6.22704
     2009.58521         8.09664         6.34846
     2009.58795         1.51628         6.21403
     2009.59069         3.48892         6.25414
     2009.59342        -7.62344         6.55335
     2009.59616        -1.74780         6.34195
     2009.59890         7.54085         6.27474
     2009.60164        -2.40951         6.29967
     2009.60438         4.39813         6.13381
     2009.60711        -5.94723         6.26390
     2009.60985        -5.52259         6.72897
     2009.61259        -3.50695         6.06659
     2009.61533         6.54270         6.03407
     2009.61807        -0.40566         6.01889
     2009.62080         7.10198         6.06768
     2009.62354        -0.81738         6.08610
     2009.62622         4.28525         6.19668
     2009.62902         9.83890         6.40808
     2009.63175         2.45855         6.22704
     2009.63449        -1.97981         6.40700
     2009.63723         3.75283         6.44277
     2009.63997        -1.40253         6.44602
     2009.64271         4.89511         6.28124
     2009.64544         2.55575         6.26173
     2009.64818         6.19140         6.36255
     2009.65092         4.53204         6.09695
     2009.65366         2.65768         6.12296
     2009.65639        -5.29668         6.43844
     2009.65913        -3.30304         6.22921
     2009.66187         0.58461         6.11429
     2009.66461         2.08525         6.15766
     2009.66735        10.07289         6.27257
     2009.67008         2.42553         6.25306
     2009.67282         4.23317         6.44928
     2009.67556         6.49681         6.15440
     2009.67830         0.33646         6.57828
     2009.68104       -15.72290         6.63357
     2009.68377        -6.08926         6.19993
     2009.68651         0.96438         6.08936
     2009.68925         2.25002         6.32677
     2009.69199        -2.80834         6.40374
     2009.69415         0.43617         7.86510
     2009.69705        -4.57115         6.95013
     2009.70379         9.71643        10.47994
     2009.70568        -0.94913         6.13489
     2009.70841        -8.75149         6.20861
     2009.71115        -9.39084         6.13055
     2009.71389         8.35480         6.34304
     2009.71663        -8.82256         6.39832
     2009.71937         8.21908         6.09911
     2009.72210        -8.93628         6.08068
     2009.72484         0.64137         6.10887
     2009.72758         6.41201         6.09261
     2009.73032         6.44865         6.46879
     2009.73305         2.03429         6.14573
     2009.73579        -3.36607         6.39182
     2009.73853         6.33857         6.01998
     2009.74127         8.16922         6.23896
     2009.74401         5.21986         6.33545
     2009.74674        -0.37350         6.01239
     2009.74948         0.26014         6.10670
     2009.75222         5.14878         6.05358
     2009.75496         3.48342         6.03732
     2009.75770         5.34607         6.08502
     2009.76043        10.51171         5.98962
     2009.76317         5.20335         6.07852
     2009.76591         1.30499         6.04708
     2009.76865        -0.10037         6.16741
     2009.77138        -4.35272         6.07743
     2009.77412         9.59292         6.08177
     2009.77686        14.83656         6.00155
     2009.77960        16.57120         6.01455
     2009.78234        12.08584         6.09261
     2009.78507         6.53948         6.16416
     2009.78781        -5.14587         6.69428
     2009.79055         0.13077         6.33436
     2009.79306         3.34036         6.68669
     2009.79960        19.79189        10.97320
     2009.80150        -5.00967         6.23029
     2009.80424        -7.78702         6.28666
     2009.80698         6.73062         6.22921
     2009.80971        -3.87074         6.44277
     2009.81245        -1.19410         6.31702
     2009.81519        -2.24746         6.26281
     2009.81793        -6.47382         6.38857
     2009.82067         4.82183         6.11321
     2009.82340         1.87947         6.10995
     2009.82614        -2.29889         6.24872
     2009.82888        -1.34025         6.39507
     2009.83162       -11.63961         6.96097
     2009.83436        -5.09396         6.20102
     2009.83709        -9.04932         6.48397
     2009.83983         2.72732         6.07960
     2009.84257         9.02996         6.13597
     2009.84531        -1.04140         6.41892
     2009.84804         2.92224         6.45361
     2009.85078       -12.81011         6.42651
     2009.85352         1.85253         6.22812
     2009.85626         5.99717         6.24763
     2009.85900       -10.18119         6.29208
     2009.86173       -10.02455         6.31051
     2009.86447         8.61409         6.53167
     2009.86721        -4.40026         6.36797
     2009.86995        10.29338         6.16091
     2009.87269         4.59202         6.21294
     2009.87542        -6.52834         6.42001
     2009.87776        -2.37379         7.39027
     2009.88090        -4.16106         6.37989
     2009.88364         3.32259         6.19777
     2009.88637        -0.43577         6.26064
     2009.88900         3.57084         6.49047
     2009.89546        -3.63564        11.06427
     2009.89733       -19.13620         6.21186
     2009.90006       -15.35256         6.33003
     2009.90280       -10.68892         6.18367
     2009.90554        -1.50128         6.08502
     2009.90828        -2.48364         6.14356
     2009.91102        -4.28100         6.09695
     2009.91375       -19.03435         6.21620
     2009.91649         0.87729         6.11538
     2009.91923       -17.92607         6.12513
     2009.92197       -15.39843         6.14356
     2009.92470       -10.76179         6.11321
     2009.92744        -4.34815         6.06225
     2009.93018        -1.98150         6.03515
     2009.93292         6.47014         6.11212
     2009.93566         6.32578         6.03840
     2009.93839         5.02342         6.29750
     2009.94113        10.09806         6.02756
     2009.94387         1.03571         6.16850
     2009.94661         4.13735         6.16633
     2009.94935         3.40499         6.03515
     2009.95208        -5.15337         6.08827
     2009.95739       -19.23713         7.00650
     2009.96117       -25.90524        10.52330
     2009.96303       -18.99680         6.08827
     2009.96577       -14.14916         6.17934
     2009.96851       -15.11052         6.20644
     2009.97125        -9.46488         6.23137
     2009.97399        -1.47924         6.05575
     2009.97672        -3.98659         5.95710
     2009.97878        -2.78211         8.65758
     2009.99589       -16.43910         6.21403
     2009.99863       -19.42446         6.06117
     2010.00410       -12.57418         6.08177
     2010.00684       -13.90253         6.00480
     2010.00958       -12.94989         5.99504
     2010.01232       -26.60025         6.03949
     2010.01505        -9.21061         6.05900
     2010.01779        -0.74397         5.98962
     2010.02053       -25.17533         6.27040
     2010.02327       -19.94068         6.22270
     2010.02600       -23.38304         6.10995
     2010.02874        -5.88840         5.98203
     2010.03148       -11.81676         6.04925
     2010.03422       -13.01912         6.32569
     2010.03696       -17.46148         6.50890
     2010.03969       -11.80883         6.32352
     2010.04243        -8.56819         6.00046
     2010.04517         2.30345         6.00263
     2010.04791         2.00409         6.12622
     2010.05065        -5.44427         6.19018
     2010.05338         3.79937         6.26281
     2010.05612         6.98002         6.13489
     2010.05886       -10.41334         6.01239
     2010.06160       -14.62770         5.98420
     2010.06433       -14.69506         5.99287
     2010.06707       -11.45942         6.00805
     2010.15468       162.59912         5.96577
     2010.15742       158.03676         5.99613
     2010.16016       161.35640         5.96577
     2010.16290       156.21004         6.31485
     2010.16564       164.31869         6.14248
     2010.16822       159.52329         6.31593
     2010.17198       154.32917         9.35465
     2010.17385       159.97461         6.17825
     2010.17659       158.56825         5.93542
     2010.17824       165.56964        13.26498
     2010.18483       169.37619         6.02648
     2010.18754       168.58882         5.92241
     2010.19028       173.23046         6.02540
     2010.19301       161.51710         6.07743
     2010.19575       166.11175         5.94951
     2010.19849       167.64539         5.96469
     2010.20123       155.90903         5.99504
     2010.20397       160.02167         6.20752
     2010.20670       158.36531         6.14573
     2010.20944       153.37895         6.79944
     2010.21218       167.83760         6.11646
     2010.21492       166.44524         5.99829
     2010.21765       175.21588         5.99504
     2010.22039       166.90052         5.98637
     2010.22313       158.57116         5.98962
     2010.22587       160.12580         6.16741
     2010.22861       166.53045         6.06442
     2010.23134       162.21309         6.09369
     2010.23359       164.79761         7.75453
     2010.23956       161.57401         6.30401
     2010.24215       166.37562         6.70837
     2010.24589       171.68750         9.86959
     2010.24777       160.10494         6.18476
     2010.25051       168.71458         6.25956
     2010.25325       165.80722         6.14031
     2010.25598       169.72386         6.06768
     2010.25872       176.00051         6.05575
     2010.26146       163.05215         6.19126
     2010.26420       166.71579         6.45361
     2010.26694       169.27943         6.15332
     2010.26967       168.76807         6.21728
     2010.27241       164.98071         6.14248
     2010.27515       170.87736         6.03082
     2010.27789       170.00700         6.16308
     2010.28062       163.05164         6.02431
     2010.28336       161.54328         6.33219
     2010.28610       156.71092         6.20319
     2010.28884       164.24056         6.29425
     2010.29158       165.66721         6.15874
     2010.29431       163.68785         6.09153
     2010.29705       172.14149         6.12513
     2010.29979       169.92113         6.06334
     2010.30253       162.97177         6.35388
     2010.30527       170.10942         6.16633
     2010.30800       169.11606         6.14465
     2010.31074       166.32370         6.09803
     2010.31348       174.60434         5.99613
     2010.31622       178.39198         6.12080
     2010.31895       180.45062         6.52408
     2010.32169       184.44227         6.91761
     2010.32443       175.74591         6.18367
     2010.32717       174.49355         6.02540
     2010.32991       178.68319         6.36472
     2010.33264       174.46183         6.57937
     2010.33538       169.88947         6.38748
     2010.33812       174.09512         5.99829
     2010.34086       157.71576         5.96902
     2010.34360       170.60740         5.96685
     2010.34633       158.62104         6.15007
     2010.34907       161.01068         5.91048
     2010.35181       165.36732         5.96035
     2010.35455       169.66597         5.98312
     2010.35728       163.99961         5.96577
     2010.36002       172.81025         6.13272
     2010.36276       163.76689         5.95059
     2010.36550       162.14353         6.21511
     2010.36824       170.24418         6.17717
     2010.37097       175.51182         6.01022
     2010.37371       173.49746         5.97444
     2010.37645       173.16510         5.98420
     2010.37919       166.22174         6.28775
     2010.38193       165.67938         6.32677
     2010.38466       167.74403         6.28233
     2010.38740       168.66367         6.05033
     2010.39014       173.17431         6.07960
     2010.39288       166.59495         5.99938
     2010.39561       158.38859         6.08502
     2010.39835       160.73023         5.90506
     2010.40109       165.16088         5.91373
     2010.40383       163.47352         5.98745
     2010.40657       166.95916         5.94517
     2010.40930       160.99280         6.01564
     2010.41204       161.11544         5.96685
     2010.41477       170.67108         5.96794
     2010.41752       168.30373         6.04383
     2010.42026       172.54737         6.25631
     2010.42299       164.39201         5.95818
     2010.42573       167.76265         5.91482
     2010.42847       166.35429         5.92349
     2010.43121       158.97894         5.90072
     2010.43394       161.92258         5.93325
     2010.43668       163.82122         5.96252
     2010.43942       170.55386         5.93000
     2010.44216       165.17350         5.85736
     2010.44490       167.19214         5.86712
     2010.44763       167.12479         6.10237
     2010.45037       171.30843         5.96143
     2010.45311       168.22807         5.93325
     2010.45585       170.28271         5.91590
     2010.45853       172.90934         6.10237
     2010.46132       169.36599         6.01889
     2010.46406       162.94664         5.91157
     2010.46680       165.94828         5.90289
     2010.46954       165.55692         5.95493
     2010.47227       161.97256         5.85953
     2010.47501       166.17220         5.92783
     2010.47775       165.05085         6.31810
     2010.48049       168.20249         6.06117
     2010.48323       169.94013         5.92349
     2010.48596       172.72277         6.19668
     2010.48870       177.45841         6.18801
     2010.49144       166.61405         5.97444
     2010.49418       172.40470         5.89422
     2010.49692       168.33234         5.87904
     2010.49965       165.02898         5.91048
     2010.50239       178.38962         5.86278
     2010.50513       168.28426         5.85302
     2010.50787       173.43390         5.87037
     2010.51060       162.64055         5.84327
     2010.51334       168.24419         5.86929
     2010.51608       169.68283         5.87796
     2010.51882       168.38047         5.87579
     2010.52156       171.89711         6.04491
     2010.52429       172.33675         5.93325
     2010.52703       163.15740         6.15657
     2010.52977       174.90404         5.87471
     2010.53251       170.05468         5.91482
     2010.53525       171.18032         5.93867
     2010.53798       164.95996         5.99396
     2010.54072       163.27061         5.88230
     2010.54346       164.64625         5.87254
     2010.54620       164.87289         5.90940
     2010.54893       163.00653         5.93975
     2010.55167       162.47417         6.30184
     2010.55441       171.27681         5.95710
     2010.55715       166.12346         5.87145
     2010.55989       162.82110         5.95059
     2010.56262       170.20774         6.00155
     2010.56536       168.19038         5.87254
     2010.56810       164.16702         5.89747
     2010.57084       164.87566         5.92891
     2010.57357       165.33831         6.26606
     2010.57631       165.04195         6.11321
     2010.57905       165.97459         5.92241
     2010.58179       165.27823         5.94300
     2010.58453       158.74187         5.89856
     2010.58726       161.91052         6.10562
     2010.59000       168.68916         6.04708
     2010.59242       175.42172         6.89701
     2010.59641       180.53166        10.27721
     2010.59822       168.72108         5.91699
     2010.60095       168.27672         5.90506
     2010.60369       170.49737         5.96902
     2010.60643       168.71301         5.92566
     2010.60917       167.64465         5.87687
     2010.61190       168.61129         5.88013
     2010.61464       166.03893         5.96035
     2010.61738       171.12257         5.89639
     2010.62012       171.16222         5.87471
     2010.62286       172.59886         5.91590
     2010.62554       163.83549         6.00697
     2010.62833       166.86314         6.03082
     2010.63107       171.12978         6.18367
     2010.63381       179.69342         5.95059
     2010.63655       175.80407         5.97119
     2010.63928       173.74571         5.96035
     2010.64202       171.86035         5.93867
     2010.64476       167.07299         6.07093
     2010.64750       168.05263         7.78596
     2010.65023       197.56028        11.90010
     2010.65297       172.61592         6.42976
     2010.65571       167.68556         5.86495
     2010.65845       168.62620         5.88555
     2010.66119       172.63484         5.94192
     2010.66392       164.22748         5.97227
     2010.66666       173.13013         5.87471
     2010.66940       167.37477         6.03190
     2010.67214       174.96841         5.93867
     2010.67488       179.14305         6.00913
     2010.67761       169.94569         5.88446
     2010.68035       166.47233         5.99829
     2010.68309       165.89498         5.93650
     2010.68583       167.88462         5.92349
     2010.68856       160.88126         5.94409
     2010.69130       169.78590         5.84544
     2010.69404       169.05854         6.02323
     2010.69678       160.85118         5.87254
     2010.69952       161.68483         6.04057
     2010.70225       161.17447         6.20102
     2010.70499       160.69211         6.00913
     2010.70773       163.42575         5.94084
     2010.71047       166.63339         5.93542
     2010.71321       171.70904         6.46337
     2010.71595       169.70268         6.11754
     2010.71868       176.80832         6.11104
     2010.72142       169.25596         6.06334
     2010.72416       163.75260         6.06768
     2010.72689       178.83724         6.10345
     2010.72963       171.56889         5.91699
     2010.73237       163.42453         5.91482
     2010.73511       169.17217         6.90893
     2010.73785       166.12381         6.16958
     2010.74058       176.88945         6.25848
     2010.74326       161.58408         5.99287
     2010.74606       168.05974         6.00805
     2010.74880       166.64938         6.48288
     2010.75154       175.90002         5.92132
     2010.75428       165.65966         5.98745
     2010.75701       170.84230         6.10345
     2010.75975       167.98194         5.85736
     2010.76249       165.11659         5.94734
     2010.76478       167.54912         6.89701
     2010.76877       172.32506         9.81322
     2010.77070       161.14151         6.20319
     2010.77977       158.77864        10.59702
     2010.78165       168.70308         6.08827
     2010.78448       158.82174         6.52083
     2010.78713       166.65036         6.11538
     2010.78987       164.72900         5.87037
     2010.79633       164.74652        12.26002
     2010.79808       163.61193         5.91373
     2010.80082       167.06757         5.86170
     2010.80355       168.71321         5.95710
     2010.80629       179.51485         5.94300
     2010.80903       170.32350         5.89422
     2010.81724       178.89242         6.15982
     2010.81998       171.53206         5.93758
     2010.82272       175.70371         6.71705
     2010.82546       172.69335         5.93542
     2010.82820       166.10499         5.96035
     2010.83367       172.90627         6.72138
     2010.83641       163.39191         6.13489
     2010.83915       164.30656         5.99938
     2010.84188       164.02720         5.98854
     2010.84462       167.79884         6.19018
     2010.84736       173.69348         5.97336
     2010.86929       165.35162         6.06876
     2010.87200       161.97326         5.95168
     2010.87474       160.76090         6.20210
     2010.87748       164.91654         6.12513
     2010.88021       169.57918         6.00371
     2010.88295       176.34682         5.96902
     2010.88569       167.10547         5.82050
     2010.89201       168.17495        10.95911
     2010.89390       175.86539         5.78689
     2010.89664       171.87003         5.84327
     2010.89938       174.24967         5.95276
     2010.90212       168.67632         5.86061
     2010.90485       162.02696         5.80424
     2010.90759       159.75960         5.78798
     2010.91033       162.64424         6.08285
     2010.91307       162.16788         5.81183
     2010.91581       165.89552         5.77605
     2010.91854       162.23717         5.81617
     2010.92128       158.11881         5.79882
     2010.92419       152.55149         6.24872
     2010.92676       166.09409         5.82592
     2010.92950       161.82173         5.78256
     2010.93223       157.88837         5.81617
     2010.93497       162.86402         5.97119
     2010.93771       159.16666         6.03949
     2010.94045       158.87930         6.06225
     2010.94318       168.20994         5.80749
     2010.94592       163.39258         5.84869
     2010.94866       162.19023         5.81942
     2010.95140       162.43787         6.24330
     2010.95414       162.05651         5.86929
     2010.95687       161.46615         5.74895
     2010.95961       161.27079         5.93650
     2010.96235       165.99943         5.79882
     2010.96509       164.28208         5.84760
     2010.96783       161.61972         5.86603
     2010.97056       165.07636         5.90615
     2010.97330       172.76100         5.83026
     2010.97604       159.76564         5.79665
     2010.97878       165.89128         5.84218
     2010.98151       158.80593         5.87362
     2010.98425       156.08957         5.81074
     2010.98699       167.59021         5.82267
     2010.98973       153.04185         5.91265
     2010.99247       160.66649         6.12838
     2010.99520       167.08714         5.97336
     2010.99794       165.71178         5.80858
     2011.00068       165.38442         5.85086
     2011.00342       165.27606         5.92783
     2011.00616       167.33570         5.79448
     2011.00889       165.91434         6.02323
     2011.01163       164.20999         5.75871
     2011.01437       162.92163         5.91590
     2011.01711       163.08027         6.50673
     2011.01984       165.82091         5.92566
     2011.02258       162.77155         5.78364
     2011.02532       162.19519         5.93108
     2011.02806       161.38484         6.05683
     2011.03080       156.67148         9.51401
     2011.03353       157.28812         5.95168
     2011.03627       163.94876         6.07418
     2011.03901       170.56140         5.91807
     2011.04175       159.85904         5.87471
     2011.04449       166.64769         6.11321
     2011.04722       155.39333         5.94734
     2011.04995       157.94197         5.91699
     2011.05270       159.78561         5.88663
     2011.05544       160.98725         5.97336
     2011.05817       151.70490         5.77605
     2011.06091       159.33754         5.82267
     2011.06365       158.44618         5.80316
     2011.06639       152.99682         5.85736
     2011.06913       151.22646         6.27365
     2011.07186       150.76210         5.85845
     2011.07460       146.32175         5.83351
     2011.07734       160.04539         5.80749
     2011.08008       156.78803         5.79557
     2011.08276       153.76166         5.89422
     2011.08566       151.84434         6.28558
     2011.08829       155.23695         5.89314
     2011.09103       151.35860         6.23354
     2011.09342       150.94016         7.07480
     2011.10015       146.12973         9.65711
     2011.10201       168.17517         5.94517
     2011.10472       161.63180         5.78256
     2011.10746       154.31945         6.12188
     2011.11019       159.11409         6.20752
     2011.11293       163.16273         6.00805
     2011.11567       162.61937         5.92783
     2011.11841       164.42501         5.84002
     2011.12115       159.61766         5.98420
     2011.12388       153.74330         6.27907
     2011.12662       166.31294         6.06984
     2011.12936       165.90458         5.86495
     2011.13210       163.89822         5.87362
     2011.13483       166.94586         5.72293
     2011.13757       165.19151         5.93867
     2011.14031       162.97415         5.83351
     2011.14305       160.93979         5.92132
     2011.14579       152.74543         5.87796
     2011.14852       156.53907         5.70017
     2011.15126       170.91371         5.77605
     2011.15400       177.42836         5.90940
     2011.15674       174.11100         5.76413
     2011.15948       164.55064         5.83351
     2011.16221       160.40228         5.95818
     2011.16495       158.27592         5.93433
     2011.16769       151.92256         5.87687
     2011.17043       154.92821         5.87254
     2011.17316       141.38785         5.81617
     2011.17590       149.22949         5.77280
     2011.17864       162.50913         5.86170
     2011.18138       158.44977         5.87796
     2011.18412       151.89442         5.95601
     2011.18685       168.47406         6.10453
     2011.18959       160.09270         5.90072
     2011.19233       158.64134         5.82050
     2011.19507       170.22598         5.84869
     2011.19780       161.66262         6.04491
     2011.20054       162.10027         5.96902
     2011.20328       167.15291         6.64983
     2011.20602       159.80855         6.07743
     2011.20876       160.04819         5.98203
     2011.21149       153.65283         5.89856
     2011.21371       146.35535         7.57999
     2011.21792       162.83534        10.43007
     2011.21971       166.16076         6.06334
     2011.22245       160.36740         6.10020
     2011.22518       172.23304         6.17500
     2011.22745       156.14857         7.41954
     2011.23694       163.13980         8.79309
     2011.23887       154.45825         5.93216
     2011.24161       157.19089         5.94300
     2011.24435       163.64953         5.99938
     2011.24709       160.59618         5.91265
     2011.24982       160.65182         5.82484
     2011.25256       156.70846         5.82267
     2011.25530       154.90210         5.89314
     2011.25804       160.06074         6.11538
     2011.26078       169.87938         6.07418
     2011.26337       160.95799         6.21728
     2011.26702       170.79585         8.56326
     2011.26899       171.17531         5.89205
     2011.27173       158.88895         5.99179
     2011.27446       170.07459         6.14031
     2011.27720       162.00323         6.02214
     2011.27994       167.68388         5.81617
     2011.28268       168.34452         5.89530
     2011.28542       154.57516         5.84002
     2011.28815       159.38080         5.79665
     2011.29089       163.90544         5.84218
     2011.29363       166.29809         6.08936
     2011.29637       170.85373         5.88446
     2011.29911       167.94237         5.87145
     2011.30184       170.64301         6.03190
     2011.30458       172.17365         5.91157
     2011.30732       170.49229         5.81833
     2011.31006       170.58394         5.81833
     2011.31279       167.75658         5.91482
     2011.31553       165.28922         5.98420
     2011.31827       171.05686         5.85194
     2011.32101       171.30050         5.89639
     2011.32375       157.30814         5.90506
     2011.32648       166.71679         5.79990
     2011.32922       162.22143         5.76630
     2011.33196       162.26707         5.88988
     2011.33470       164.61871         5.99504
     2011.33744       160.66335         6.00046
     2011.34017       166.97599         6.03082
     2011.34291       166.15864         6.02214
     2011.34565       164.11328         5.89639
     2011.34839       164.60092         5.91590
     2011.35112       166.80156         5.94626
     2011.35386       162.72620         5.96685
     2011.35660       162.70285         5.77280
     2011.35934       154.32149         5.91807
     2011.36090       152.81585        17.49728
     2011.36481       157.76777         5.97011
     2011.36755       155.62641         5.95601
     2011.37029       168.07305         5.94084
     2011.37303       168.37470         6.74632
     2011.37577       159.63434         5.99287
     2011.37850       156.96598         5.99721
     2011.38124       158.81062         5.92674
     2011.38398       154.06326         5.99721
     2011.38672       163.99690         6.22487
     2011.38945       167.17155         5.89314
     2011.39219       163.56219         5.95493
     2011.39493       160.54783         5.93433
     2011.39769       160.02048         6.15657
     2011.40041       166.58411         5.90072
     2011.40314       156.10376         5.91157
     2011.40588       164.11040         5.85302
     2011.40862       165.14304         5.92349
     2011.41136       156.48468         5.94517
     2011.41410       166.19732         5.98312
     2011.41683       163.05396         5.99721
     2011.41957       164.35161         5.96794
     2011.42231       153.76125         5.90181
     2011.42505       160.02189         5.98528
     2011.42778       159.48053         6.52950
     2011.43052       166.74517         6.04166
     2011.43326       159.30681         5.89639
     2011.43600       155.22546         5.95601
     2011.43874       157.53610         6.04491
     2011.44147       162.43474         5.89856
     2011.44421       158.90538         5.93975
     2011.44695       169.07702         6.05575
     2011.44969       166.84966         6.06117
     2011.45243       162.11631         5.95493
     2011.45516       162.34195         5.97444
     2011.45790       160.32959         6.03298
     2011.46064       163.42923         6.01889
     2011.46338       157.79287         5.93000
     2011.46611       162.65252         5.92891
     2011.46885       166.30616         5.93000
     2011.47159       161.77080         6.11212
     2011.47433       161.64444         6.36797
     2011.47707       167.73508         5.97878
     2011.47980       167.82572         5.93650
     2011.48254       162.97437         6.03298
     2011.48528       164.08901         6.02540
     2011.48802       162.32265         6.05250
     2011.49076       165.05229         6.19018
     2011.49349       167.45293         6.10670
     2011.49623       168.71757         5.99829
     2011.49897       166.44022         6.01130
     2011.50171       171.28686         6.05033
     2011.50444       162.44150         6.00263
     2011.50718       164.50514         6.01130
     2011.50992       167.01578         5.97444
     2011.51266       163.98642         6.08502
     2011.51540       173.70507         6.58479
     2011.51813       163.72071         5.94842
     2011.52087       170.67535         6.00913
     2011.52361       171.89599         8.55567
     2011.52635       169.92963         6.04816
     2011.52908       174.68028         6.06117
     2011.53182       173.79092         7.07480
     2011.53547       173.05477        14.14960
     2011.53730       162.13020         6.10562
     2011.54004       161.97884         5.96685
     2011.54277       163.22148         5.90615
     2011.54551       166.97113         6.00805
     2011.54825       167.85277         5.95710
     2011.55099       163.65941         6.19018
     2011.55373       166.40505         5.93867
     2011.55528       162.75142        19.75545
     2011.56279       174.72617        10.10051
     2011.56470       167.83162         6.33436
     2011.56741       171.14926         5.99396
     2011.57013       162.46490         6.19668
     2011.57289       166.14654         6.05900
     2011.57563       164.02918         6.02540
     2011.57837       180.48283         6.10128
     2011.58110       161.31647         6.14573
     2011.58384       160.16111         6.05141
     2011.58658       159.96075         7.52578
     2011.58932       161.85039         5.94517
     2011.59206       169.18104         6.02323
     2011.59479       173.87468         5.94951
     2011.59645       171.13007        14.05420
     2011.60102       173.68814         8.78984
     2011.60301       164.24060         5.99070
     2011.60574       160.90624         6.09369
     2011.60848       170.41689         6.36580
     2011.61122       170.57053         6.33653
     2011.61396       171.14517         6.13706
     2011.61670       169.90781         6.13381
     2011.61943       169.94645         6.16091
     2011.62217       166.83109         6.38315
     2011.62491       174.49674         7.63528
     2011.62767       173.86338         6.82979
     2011.63039       166.90302         8.03097
     2011.63312       166.83366         6.07418
     2011.63502       169.56411         9.23973
     2011.64134       174.11859         6.44060
     2011.64407       162.72423         6.24005
     2011.64681       168.64287         6.06984
     2011.64955       165.19551         6.22487
     2011.65229       159.19915         6.06659
     2011.65503       162.11880         6.25089
     2011.65764       167.51441         6.81678
     2011.68315       157.83139         9.18770
     2011.68512       167.97285         6.16958
     2011.68788       163.25550         6.05900
     2011.69062       166.44914         6.09261
     2011.69336       165.95778         6.08610
     2011.69609       166.12242         6.08827
     2011.69883       168.63606         6.10237
     2011.70157       170.86171         6.13489
     2011.70431       165.92535         6.39724
     2011.70705       171.54499         6.15332
     2011.70978       175.27063         5.99829
     2011.71252       160.69927         6.10995
     2011.71521       166.05690         6.21403
     2011.71878       166.84574         9.67012
     2011.72073       176.94220         6.08394
     2011.72347       167.56984         6.43085
     2011.72621       173.25748         6.29534
     2011.72895       167.37812         6.03515
     2011.73169       175.19376         6.36905
     2011.73442       169.87541         6.36905
     2011.73716       160.70605         6.39724
     2011.73990       165.00169         6.30401
     2011.74236       163.42627         6.59129
     2011.74630       158.43119        12.66547
     2011.74764       173.52750         7.57673
     2011.75181       182.53548        12.61669
     2011.75359       171.68690         6.16199
     2011.75633       171.56254         6.22595
     2011.75906       178.47218         6.40808
     2011.76180       173.18482         6.26498
     2011.76454       175.39447         6.07310
     2011.76728       165.17911         6.17825
     2011.77002       170.12175         6.14356
     2011.77275       170.71039         6.18909
     2011.77549       171.04303         6.28016
     2011.77823       172.65567         6.27691
     2011.78097       163.24332         6.10020
     2011.78349       166.74691         6.78101
     2011.79267       159.99206         9.79262
     2011.79466       165.54852         6.06984
     2011.79739       164.79717         6.24113
     2011.80013       173.36781         6.62490
     2011.80287       174.77945         6.46445
     2011.80561       163.61909         6.19885
     2011.80835       164.36673         6.07093
     2011.81108       164.73137         6.03840
     2011.81382       159.05402         6.27691
     2011.81652       159.03565         6.19668
     2011.82010       168.81949         9.92922
     2011.82206       161.90495         7.22440
     2011.82477       162.11458         6.28991
     2011.82751       155.73223         6.27365
     2011.83025       159.14987         6.33978
     2011.83299       156.08151         6.05141
     2011.83571       155.23915         6.64008
     2011.83846       168.42479         7.70683
     2011.84120       165.14943         6.14356
     2011.84394       160.29608         5.88446
     2011.84668       163.09172         5.91699
     2011.84941       162.71436         6.53817
     2011.85215       159.31500         6.98590
     2011.85489       164.57264         6.30292
     2011.85763       163.69828         6.29100
     2011.86036       175.95393         6.05683
     2011.86310       171.33357         6.09803
     2011.86584       175.43621         6.07093
     2011.86858       177.21885         6.13489
     2011.87110       172.85144         6.59129
     2011.87405       164.73014         6.06334
     2011.87679       163.10378         6.15223
     2011.87953       164.94942         6.05792
     2011.88227       157.23906         5.94951
     2011.88501       160.03470         5.97553
     2011.88774       163.79734         5.97336
     2011.89048       160.90799         6.05141
     2011.89322       160.52163         6.09044
     2011.89596       158.42727         5.97661
     2011.89869       162.25891         6.01889
     2011.90087       168.23342         7.85860
     2011.90781       147.68305        10.27938
     2011.90965       162.37648         6.09369
     2011.91238       164.31712         6.13164
     2011.91512       150.97976         6.07201
     2011.91786       154.35340         6.17175
     2011.92060       141.26304         6.05141
     2011.92334       154.40369         6.05358
     2011.92607       148.56633         6.10020
     2011.92881       166.07597         6.03624
     2011.93155       161.50061         6.01998
     2011.93429       163.62225         6.03732
     2011.93702       162.73490         6.10453
     2011.93976       163.54754         6.04057
     2011.94250       165.33118         6.04925
     2011.94524       165.04982         6.05900
     2011.94798       169.76446         6.09044
     2011.95077       169.26212         6.13272
     2011.95345       164.86775         6.04274
     2011.95619       166.82239         6.17608
     2011.95893       167.75203         5.88121
     2011.96167       171.88067         6.02865
     2011.96440       162.51131         5.98745
     2011.96714       166.50795         6.25089
     2011.96988       160.20060         5.87145
     2011.97262       162.07824         5.82917
     2011.97535       156.66588         5.86495
     2011.97809       162.24352         5.93433
     2011.98083       157.45616         5.93325
     2011.98357       168.48980         5.88338
     2011.98631       167.12045         5.86170
     2011.98904       172.39409         6.08610
     2011.99178       168.34573         5.88230
     2011.99452       165.48537         6.07310
     2011.99726       162.34801         5.87687
     2012.00000       159.77566         5.84869
     2012.00273       152.40330         5.84652
     2012.00539       172.63792         6.16199
     2012.00825       162.94459         6.03298
     2012.01095       159.69622         5.97553
     2012.01368       160.34286         5.97770
     2012.01642       164.94051         5.79232
     2012.01916       166.49715         5.83026
     2012.02190       172.89679         5.86603
     2012.02464       168.15243         5.90831
     2012.02737       164.89807         5.83676
     2012.03011       161.56271         5.80424
     2012.03285       161.73736         6.00155
     2012.03559       156.24900         5.82917
     2012.03833       165.42164         5.79232
     2012.04106       165.09828         5.80858
     2012.04380       165.44392         6.04816
     2012.04654       171.28857         5.80858
     2012.04928       171.15521         5.95168
     2012.05201       163.55285         5.97336
     2012.05475       173.22749         5.85845
     2012.05706       171.45103         7.32956
     2012.06108       160.86697         9.95307
     2012.06297       166.35042         5.88880
     2012.06570       163.45406         6.01239
     2012.06844       163.80670         5.88013
     2012.07118       161.49734         5.89639
     2012.07392       163.84498         5.83676
     2012.07666       167.05862         5.83026
     2012.07939       167.62827         5.83460
     2012.08213       163.97091         5.81074
     2012.08487       166.97255         5.86495
     2012.08761       159.68019         5.93000
     2012.09034       157.57483         5.82375
     2012.09308       158.33447         5.96577
     2012.09582       157.81212         6.20210
     2012.09861       160.35077         6.57828
     2012.10130       166.17540         6.55010
     2012.10403       166.24504         5.98745
     2012.10677       158.78868         5.91915
     2012.11042       162.05354         9.93681
     2012.11225       162.39597         5.86061
     2012.11498       165.55561         5.88988
     2012.11772       166.83025         5.89964
     2012.12046       167.28889         5.88988
     2012.12320       159.06453         5.87254
     2012.12594       162.72218         5.90723
     2012.12867       160.25782         5.95710
     2012.20260        92.87814         6.30401
     2012.20533        98.65379         5.95385
     2012.20807       100.25343         5.79232
     2012.21081       107.45007         5.85411
     2012.21355       100.66171         5.93867
     2012.21629        96.73935         6.19451
     2012.21902        95.44199         6.64983
     2012.22176        95.15764         5.80424
     2012.22450        93.12828         6.02756
     2012.22724        95.30292         5.81074
     2012.22997       100.20556         5.79557
     2012.23271        99.66220         5.81725
     2012.23545        97.30285         6.15332
     2012.23817       101.92448         5.94192
     2012.24093       101.66813         6.44602
     2012.24366       100.26677         6.15223
     2012.24640        99.20141         5.79990
     2012.24914        99.38505         5.79990
     2012.25188       101.07170         6.02214
     2012.25462        93.72034         5.90831
     2012.25741        97.45499         6.37664
     2012.26009        90.78162         5.98528
     2012.26283        88.25126         5.83026
     2012.26557        89.93490         6.32786
     2012.26830        93.31255         5.79990
     2012.27104        98.50719         5.95601
     2012.27378        99.90083         5.93758
     2012.27654        93.88348         5.95059
     2012.27926        97.18911         6.13489
     2012.28199        94.90176         6.14031
     2012.28473        97.02340         5.87037
     2012.28747        98.29504         5.85736
     2012.29021       101.97768         6.22595
     2012.29295        91.15332         6.64983
     2012.29568        90.19796         6.45795
     2012.29842        94.17361         6.00155
     2012.30116        97.70525         5.96577
     2012.30390        90.41789         5.84977
     2012.30663        97.42353         5.82592
     2012.30937        96.79517         5.94300
     2012.31211        99.97281         6.17934
     2012.31485        98.55246         6.29100
     2012.31759        94.84410         5.97878
     2012.32032       100.36274         6.02431
     2012.32306        93.61738         5.90398
     2012.32580        91.46002         5.85628
     2012.32854       102.08966         6.03298
     2012.33128       103.65731         6.20752
     2012.33401        97.76795         5.96469
     2012.33675        96.47659         5.83676
     2012.33949        90.96523         5.93433
     2012.34223        94.54887         5.78473
     2012.34496        87.90952         5.80858
     2012.34770        90.04316         6.10779
     2012.35044       101.06580         6.20427
     2012.35318        99.93544         5.86820
     2012.35592        99.24508         5.81833
     2012.35865        95.38072         5.95710
     2012.36141        93.90337         5.87037
     2012.36413        92.13601         5.79015
     2012.36687        98.51965         5.79882
     2012.36961        95.23929         5.91915
     2012.37234       102.89093         5.86820
     2012.37508        95.40657         5.83460
     2012.37782        96.52122         6.02214
     2012.38056        93.15086         6.04708
     2012.38329       100.05650         6.01130
     2012.38603        96.31614         6.06442
     2012.38878        95.00779         6.82654
     2012.39151        98.48642         6.79619
     2012.39425        96.67607         6.12296
     2012.39698        93.55371         5.97770
     2012.39972       101.23835         5.91157
     2012.40246        99.27699         5.83243
     2012.40520        96.59163         5.81400
     2012.40794        94.04628         5.82809
     2012.41065        96.26591         5.91048
     2012.41257        90.75436        10.15471
     2012.41651       112.52329         6.73981
     2012.41889        99.29984         6.07635
     2012.42162        99.83848         5.84652
     2012.42436        94.44613         5.84218
     2012.42710        99.57777         5.81833
     2012.42984       100.95641         5.94626
     2012.43258        94.64505         5.83676
     2012.43531        94.56069         6.10670
     2012.43805        94.91333         5.88121
     2012.44079        91.90798         5.90831
     2012.44353        86.90962         5.84002
     2012.44626        94.63926         5.89314
     2012.44900       101.24090         5.89314
     2012.45174        97.35554         6.00697
     2012.45448        93.83919         5.82701
     2012.45722        96.16483         5.91590
     2012.45995       101.66947         6.04816
     2012.46269       107.10611         5.88555
     2012.46543        96.75275         5.96360
     2012.46817       100.07339         5.88013
     2012.47091       100.44104         5.87037
     2012.47364        96.77568         6.05250
     2012.47638        98.82432         5.86820
     2012.47912        94.46496         5.83243
     2012.48186        93.01660         5.90181
     2012.48459       102.08024         5.82050
     2012.48733        99.73889         5.86712
     2012.49007        98.09653         6.11321
     2012.49281        96.81817         5.84435
     2012.49509        93.47470         7.40870
     2012.49739       112.50724        10.69134
     2012.51274       101.55284         9.08146
     2012.51471        94.54630         5.80316
     2012.51745        97.39995         5.83351
     2012.52019        96.49559         5.86170
     2012.52292        91.14123         5.88988
     2012.52566        97.59287         6.03515
     2012.52840       102.06051         5.85302
     2012.53114       100.76615         7.48133
     2012.53388       110.43880         9.90103
     2012.53661        94.23344         6.03732
     2012.53935        95.87308         5.96469
     2012.54209       107.23072         5.88988
     2012.54483        94.47236         5.87579
     2012.54757        96.13300         5.85845
     2012.55030       101.78865         5.94084
     2012.55304       102.87629         5.84327
     2012.55578       103.69493         5.84218
     2012.55852       101.10657         5.86929
     2012.56125       101.06921         5.91157
     2012.56399        95.95785         5.87471
     2012.56675       100.98650         5.88555
     2012.56947        98.69414         6.13272
     2012.57221        99.25878         5.79882
     2012.57494        99.69242         5.81617
     2012.57768        99.73106         5.91482
     2012.58042       108.85371         5.91807
     2012.58316        97.05035         5.90940
     2012.58590       108.77799         5.88880
     2012.58863       101.84063         6.08936
     2012.59137       103.90527         5.94626
     2012.59411       105.79291         5.82050
     2012.59685       104.59256         5.94626
     2012.59958       100.24120         6.02756
     2012.60232       105.61184         6.33436
     2012.60506        99.69748         6.24330
     2012.60780       101.32612         6.19018
     2012.61054       107.49476         6.19993
     2012.61327       107.59241         5.82701
     2012.61601       108.52805         5.90615
     2012.61875       105.45569         5.93975
     2012.62149        98.25633         5.97011
     2012.62423       109.95397         6.08285
     2012.62696       109.27661         6.10020
     2012.63518       201.87154         5.98637
     2012.63791       201.22218         6.02323
     2012.64065       201.76482         5.82484
     2012.64339       206.03847         5.79123
     2012.64613       200.67811         5.89205
     2012.64887       201.03475         5.84435
     2012.65160       207.77739         6.03840
     2012.65434       196.68603         5.97878
     2012.65708       204.01467         6.04491
     2012.65982       199.48232         6.09261
     2012.66256       205.50996         6.01889
     2012.66529       198.69860         5.84435
     2012.66803       197.03224         5.85953
     2012.67077       205.68088         5.86820
     2012.67351       196.24152         5.83351
     2012.67624       199.17817         5.99938
     2012.67898       200.42781         5.99070
     2012.68172       200.65945         5.94842
     2012.68446       199.85509         5.94300
     2012.68720       204.53573         6.30184
     2012.68993       203.57038         5.86061
     2012.69267       200.08402         6.58479
     2012.69541       197.82666         6.18584
     2012.69815       196.10030         6.40158
     2012.70089       197.01894         6.00805
     2012.70362       193.77758         6.07526
     2012.70636       196.02123         6.10562
     2012.70910       191.45887         5.84002
     2012.71184       195.18451         5.98637
     2012.71457       202.28315         6.77993
     2012.71731       205.44379         6.01672
     2012.72005       199.30943         5.93758
     2012.72279       195.79908         5.88230
     2012.72553       206.95972         5.91915
     2012.72826       194.84936         5.87037
     2012.73100       203.39100         6.22053
     2012.73374       200.62764         6.03298
     2012.73648       192.64928         5.89422
     2012.73921       198.82593         5.98854
     2012.74195       196.87657         6.19018
     2012.74428       199.10211         7.36534
     2012.75108       194.09071        11.31361
     2012.75290       198.46314         6.12080
     2012.75564       195.55878         5.89205
     2012.75838       197.83942         5.90072
     2012.76112       199.18506         5.96794
     2012.76386       201.60970         6.22921
     2012.76659       200.05634         6.39399
     2012.76933       199.33699         5.96577
     2012.77207       192.35563         6.10779
     2012.77483       191.37527         6.00697
     2012.77754       196.46691         5.89422
     2012.78028       203.94655         6.12622
     2012.78302       204.13519         6.46337
     2012.78576       188.74284         6.15766
     2012.78850       201.21748         6.10562
     2012.79199       204.41530        10.57425
     2012.79397       196.80176         5.99721
     2012.79671       196.66940         5.99179
     2012.79945       201.71604         6.09044
     2012.80219       202.58669         6.14248
     2012.80492       195.69933         5.95059
     2012.80766       192.76497         5.97770
     2012.81039       190.59861         6.00913
     2012.81314       188.94725         6.05358
     2012.81587       185.63290         5.88663
     2012.81861       187.40154         6.06659
     2012.82135       195.59618         5.97770
     2012.82409       200.11182         6.26173
     2012.82683       199.62746         6.11104
     2012.82956       192.78310         6.00371
     2012.83230       195.78775         6.04925
     2012.83504       194.82939         6.13272
     2012.83778       193.63903         5.99938
     2012.84052       196.06267         6.02431
     2012.84273       200.12019         7.77512
     2012.84685       188.43416        10.08641
     2012.84873       191.22960         6.26173
     2012.85147       198.65624         6.17825
     2012.85420       192.95788         5.98203
     2012.85694       189.64752         6.03840
     2012.85968       193.21416         6.00480
     2012.86242       191.19881         6.00805
     2012.86516       196.61845         5.95710
     2012.86789       191.74609         6.38640
     2012.87063       190.71173         5.89530
     2012.87337       185.00637         6.04816
     2012.87611       193.21001         5.93433
     2012.87885       200.77166         5.94300
     2012.88158       199.27430         5.91915
     2012.88432       196.51394         6.04599
     2012.88706       195.83358         6.40916
     2012.88980       199.32522         6.10670
     2012.89253       184.26786         5.88013
     2012.89527       195.43051         6.28883
     2012.89801       191.04715         5.97119
     2012.90075       186.64279         5.90398
     2012.90349       185.35643         5.89856
     2012.90622       188.57907         5.93650
     2012.90896       194.60271         6.09153
     2012.91172       197.14836         6.05033
     2012.91444       195.56100         5.95059
     2012.91718       197.16864         5.94626
     2012.91991       199.49928         5.99179
     2012.92265       193.50792         6.04708
     2012.92540       194.49757         5.94517
     2012.92812       194.04321         6.01239
     2012.93086       188.04785         6.09803
     2012.93360       188.10049         6.06876
     2012.93634       191.71413         5.84869
     2012.93908       188.98377         5.99613
     2012.94182       187.65742         5.89639
     2012.94456       198.44306         6.16091
     2012.94729       192.66770         6.03624
     2012.95002       197.76934         5.96685
     2012.95277       199.71198         5.92349
     2012.95551       196.65062         5.86170
     2012.95824       202.49627         5.75979
     2012.96098       196.32591         6.06984
     2012.96372       194.85355         5.99938
     2012.96646       192.73919         5.84218
     2012.96919       192.48383         5.97661
     2012.97193       191.70547         6.05900
     2012.97467       191.17312         5.80532
     2012.97741       189.52476         5.81074
     2012.98015       187.19840         5.77714
     2012.98288       186.57604         5.81942
     2012.98562       191.93668         5.83351
     2012.98836       193.14833         5.76521
     2012.99110       192.81697         5.75546
     2012.99384       192.62361         5.80424
     2012.99657       187.73725         5.77280
     2012.99931       189.28889         5.83134
     2013.00205       194.24853         5.81833
     2013.00479       185.68518         5.82917
     2013.00752       187.35382         5.80641
     2013.01026       189.81846         5.81942
     2013.01300       190.25310         5.85194
     2013.01574       194.60774         5.96794
     2013.01848       196.39138         5.95059
     2013.02121       191.52803         5.88880
     2013.02395       194.77467         6.11212
     2013.02669       188.95531         6.04057
     2013.02943       189.78495         5.96685
     2013.03216       189.54759         5.97770
     2013.03490       184.11423         5.83568
     2013.03764       187.18488         5.79990
     2013.04038       184.48352         5.92674
     2013.04313       187.12716         5.98962
     2013.04585       184.74180         6.05141
     2013.04859       187.24644         6.11538
     2013.05133       185.53209         5.84869
     2013.05407       186.55473         5.84002
     2013.05681       190.75237         5.91915
     2013.05954       194.57201         6.90676
     2013.06230       189.53966         7.08564
     2013.06502       190.84829         6.24872
     2013.06776       185.84494         5.95601
     2013.07049       192.18758         5.93542
     2013.07323       189.83822         5.87796
     2013.07597       189.23986         5.95927
     2013.07871       190.96750         6.02973
     2013.08145       195.84314         6.01130
     2013.08418       190.80879         6.36038
     2013.08692       182.47143         6.22378
     2013.08967       187.07607         5.86603
     2013.09240       191.28771         5.90723
     2013.09512       202.02735         8.04506
     2013.09787       199.01600        11.90335
     2013.10061       196.52164         6.73331
     2013.10335       191.80528         6.03624
     2013.10609       189.53192         6.17717
     2013.10882       190.08256         5.95168
     2013.11156       182.43820         5.96143
     2013.11430       186.44685         5.86603
     2013.11701       184.08448         6.15440
     2013.11977       201.09413         6.47855
     2013.12251       188.22477         5.88880
     2013.12525       180.76241         5.99613
     2013.12799       192.55005         5.94409
     2013.13073       189.16070         5.93433
     2013.13347       191.57634         6.03732
     2013.13620       196.09098         8.52532
     2013.13894       196.83162         9.22998
     2013.14168       206.05926         8.72154
     2013.14442       201.63090         8.27381
     2013.14717       204.91555         8.72154
     2013.14909       181.94500        13.21511
     2013.15351       196.03603         9.79588
     2013.15537       179.18147         6.06442
     2013.15811       185.48911         6.03082
     2013.16084       183.79876         5.92566
     2013.16358       186.24340         6.66393
     2013.16632       185.89604         5.81725
     2013.16906       185.38968         5.92566
     2013.17179       186.85532         6.01347
     2013.17453       186.81096         5.82701
     2013.17727       190.21761         5.93000
     2013.18001       186.14225         6.03082
     2013.18275       186.41589         5.85086
     2013.18549       185.74053         5.83893
     2013.18822       183.63217         5.87904
     2013.19095       183.59581         5.95276
     2013.19370       186.03746         6.40266
     2013.19643       188.27910         5.95385
     2013.19917       188.57774         6.13923
     2013.20191       191.85838         6.12080
     2013.20465       192.91702         6.16524
     2013.20739       192.02866         5.98312
     2013.21013       194.06131         5.90506
     2013.21286       183.95395         6.04599
     2013.21560       188.96259         6.36363
     2013.21834       200.46523         7.85643
     2013.22108       187.06287         5.84002
     2013.22381       188.37952         6.04166
     2013.22655       181.01616         6.39832
     2013.22929       188.64680         6.11646
     2013.23203       189.15344         5.82267
     2013.23477       188.14108         5.97553
     2013.23750       184.24872         6.38640
     2013.24024       180.77237         6.23246
     2013.24298       183.95001         6.21403
     2013.24572       194.32765         5.92349
     2013.24846       191.05929         5.92132
     2013.25119       185.34693         6.10345
     2013.25393       192.20857         6.35171
     2013.25667       192.08822         6.32461
     2013.25939       200.77685         6.01564
     2013.26214       194.45150         5.94192
     2013.26488       195.23114         5.94300
     2013.26762       192.42678         5.93542
     2013.27036       180.91742         6.55335
     2013.27310       195.16907         6.35062
     2013.27583       185.24671         6.06334
     2013.27857       188.00135         6.05900
     2013.28131       195.55199         5.95601
     2013.28405       190.07163         6.00046
     2013.28679       187.61628         5.95818
     2013.28952       183.42992         5.86929
     2013.29226       186.09056         6.00046
     2013.29500       185.52120         5.90831
     2013.29774       185.69984         5.97444
     2013.30047       184.87848         6.03190
     2013.30321       181.20813         5.95385
     2013.30595       182.02477         5.93975
     2013.30869       184.87141         6.06551
     2013.31143       181.35505         5.96794
     2013.31416       193.55769         6.02214
     2013.31690       190.69633         6.03298
     2013.31964       200.77498         6.10887
     2013.32238       193.40862         5.96902
     2013.32512       191.70426         6.15657
     2013.32785       190.67690         5.95818
     2013.33059       190.40254         5.94842
     2013.33880       192.90747         5.92349
     2013.34154       192.47711         6.01239
     2013.34428       189.46175         5.92024
     2013.34702       191.84139         5.95927
     2013.34976       188.94504         5.92132
     2013.35249       185.34968         5.90831
     2013.35523       188.14132         6.07310
     2013.35797       193.55096         6.01672
     2013.36071       201.44060         6.05683
     2013.36344       208.15124         6.09586
     2013.36618       194.11489         6.04383
     2013.36892       196.01353         5.95818
     2013.37166       190.02917         6.01130
     2013.37441       189.34681         5.92566
     2013.37713       189.68145         5.92241
     2013.37987       186.71609         5.85736
     2013.38261       185.59674         5.90615
     2013.38535       194.96638         5.93542
     2013.38809       191.27602         6.10345
     2013.39082       193.37966         5.93758
     2013.39356       188.26930         5.87471
     2013.39630       192.46595         5.83460
     2013.39904       190.38259         6.00371
     2013.40177       196.14123         5.97770
     2013.40451       195.26487         6.02431
     2013.40725       195.23551         5.93325
     2013.40999       192.59615         5.94192
     2013.41273       193.37680         5.94951
     2013.41546       198.39744         6.27799
     2013.41820       192.58808         5.97878
     2013.42093       197.17972         6.02756
     2013.42368       188.27036         6.12296
     2013.42642       192.86800         6.04816
     2013.42915       196.72265         6.06876
     2013.43189       203.94629         6.27257
     2013.43463       199.35593         5.95168
     2013.43737       197.78357         5.99396
     2013.44010       194.52421         5.93433
     2013.44284       196.30385         6.18151
     2013.44558       194.56650         6.07852
     2013.44832       186.95014         5.98854
     2013.45106       192.87678         6.20102
     2013.45379       187.12042         5.97227
     2013.45653       193.41606         5.97986
     2013.45927       195.66371         5.94734
     2013.46201       196.98535         5.99938
     2013.46475       197.33299         6.21728
     2013.46748       192.12263         5.95059
     2013.47022       192.18327         5.97011
     2013.47296       190.09791         5.95059
     2013.47570       198.33256         5.88880
     2013.47843       198.31420         5.91482
     2013.48117       200.56184         5.99070
     2013.48391       199.49748         5.97553
     2013.48665       186.84012         5.84218
     2013.48939       190.98876         5.88446
     2013.49212       191.35741         5.94409
     2013.49486       193.41905         5.84760
     2013.49760       208.62269         6.02648
     2013.50034       198.41833         6.12622
     2013.50308       191.82897         6.21728
     2013.50581       202.77662         5.99396
     2013.50855       194.58226         5.86929
     2013.51129       197.19890         5.89422
     2013.51403       195.41854         5.92674
     2013.51676       196.31318         5.90289
     2013.51950       194.03782         5.91699
     2013.52224       199.31647         6.13923
     2013.52498       199.72111         6.15007
     2013.52772       200.00175         5.88121
     2013.53045       190.64339         5.89097
     2013.53319       192.14503         5.96902
     2013.53593       201.07167         5.93325
     2013.53867       198.47732         5.94300
     2013.54141       199.20996         6.05033
     2013.54414       196.34760         5.86820
     2013.54688       193.71524         5.97661
     2013.54962       198.52188         5.92024
     2013.55236       202.04052         5.90615
     2013.55509       199.14717         6.06876
     2013.55783       198.08681         5.95276
     2013.56057       189.68345         5.98095
     2013.56331       195.51109         6.02973
     2013.56605       195.41773         5.91590
     2013.56878       203.79938         5.88446
     2013.57152       200.94202         5.88988
     2013.57424       201.84765         5.91265
     2013.57700       196.99130         6.20319
     2013.57974       198.56294         5.94409
     2013.58247       201.75058         5.96360
     2013.58521       204.01723         5.93000
     2013.58795       199.14687         5.84869
     2013.59069       198.11951         5.88880
     2013.59342       197.58815         5.91048
     2013.59616       204.09679         5.88988
     2013.59890       202.21043         6.02756
     2013.60164       197.96808         5.95601
     2013.60438       203.51072         6.09803
     2013.60711       196.65036         6.01455
     2013.60985       199.23600         5.93216
     2013.61259       201.83464         5.90615
     2013.61533       202.41628         6.30184
     2013.61807       202.44193         6.28233
     2013.62076       214.09956         6.22053
     2013.62354       202.64121         5.92566
     2013.62628       201.80685         6.02648
     2013.62902       197.56049         6.06117
     2013.63175       209.00614         6.05575
     2013.63449       202.67578         6.06225
     2013.63723       200.59742         5.89747
     2013.63997       204.38506         5.95818
     2013.64272       202.05270         5.95276
     2013.64545       205.71735         6.05467
     2013.64818       201.90099         5.91915
     2013.65092       204.21063         5.94300
     2013.65366       202.36627         6.64225
     2013.65639       212.12791         7.12684
     2013.65913       206.87055         6.45253
     2013.66187       220.07519         6.39724
     2013.66461       199.43784         5.93325
     2013.66735       205.74048         5.94409
     2013.67008       213.44212         6.10345
     2013.67282       207.52176         6.27582
     2013.67556       206.95240         7.66997
     2013.67830       206.79104         6.59129
     2013.68104       204.86369         5.99287
     2013.68377       202.46833         5.99396
     2013.68651       198.64397         5.90615
     2013.68925       205.88061         6.13381
     2013.69199       204.97125         6.05358
     2013.69472       202.79290         6.21836
     2013.69746       199.50454         5.89639
     2013.70016       204.11817         6.10020
     2013.70916       200.71828         9.23431
     2013.71115       199.75575         6.15549
     2013.71389       202.36039         5.99287
     2013.71663       206.98203         6.03515
     2013.71938       208.82767         6.22812
     2013.72210       208.12731         5.91265
     2013.72484       206.44795         6.04816
     2013.72758       204.66460         6.32569
     2013.73032       204.22824         6.97181
     2013.73305       206.52988         6.24980
     2013.73579       199.91252         7.46832
     2013.73853       210.08416         6.03190
     2013.74127       200.75981         5.95385
     2013.74401       212.24345         6.24005
     2013.74674       204.82309         6.28558
     2013.74948       202.07273         6.05467
     2013.75222       194.88537         5.93758
     2013.75496       192.82701         5.91699
     2013.75770       187.53966         5.90615
     2013.76043       192.00730         5.91265
     2013.76317       194.22994         6.00913
     2013.76591       217.33858         6.26173
     2013.76865       192.58722         6.12947
     2013.77138       194.10486         6.17066
     2013.77412       200.01051         6.14465
     2013.77686       196.83015         5.99179
     2013.77961       196.27779         5.91265
     2013.78234       190.01943         6.08610
     2013.78507       189.36507         5.89964
     2013.78781       189.75871         6.09261
     2013.79055       195.95236         6.10779
     2013.79329       188.27400         5.83676
     2013.79603       195.48064         5.87904
     2013.79876       194.80928         5.84327
     2013.80150       199.98792         6.02973
     2013.80410       201.58553         7.08998
     2013.80782       195.79040        63.27533
     2013.81519       182.89513        11.10980
     2013.81793       195.02477         5.95710
     2013.82067       204.98142         6.10453
     2013.82340       200.29106         6.15657
     2013.82614       196.24170         6.03732
     2013.82888       195.67134         6.08827
     2013.83162       202.11698         6.02106
     2013.83436       196.07562         6.05900
     2013.83709       205.52627         6.09044
     2013.83983       192.06191         5.98854
     2013.84257       193.10855         5.96252
     2013.84530       199.84719         6.10345
     2013.84804       189.76883         5.90181
     2013.85078       192.42747         6.10995
     2013.85352       196.16212         5.93867
     2013.85626       191.26576         5.86603
     2013.85900       195.71740         5.88663
     2013.86173       195.11404         5.95385
     2013.86447       197.56868         5.99938
     2013.86721       191.51333         6.16850
     2013.86995       192.48697         5.86603
     2013.87269       199.62761         6.00046
     2013.87542       203.72125         6.06117
     2013.87816       203.55189         6.02431
     2013.88090       200.66653         6.06442
     2013.88364       201.96018         6.27365
     2013.88637       195.92482         5.83893
     2013.88911       192.54046         5.92024
     2013.89185       188.16610         5.94734
     2013.89459       189.67374         5.96252
     2013.89733       192.84638         5.96143
     2013.90006       188.67703         5.99287
     2013.90280       187.19467         5.97119
     2013.90554       195.06631         5.98312
     2013.90828       190.51595         6.48830
     2013.91102       192.25559         5.92241
     2013.91375       188.76224         5.90289
     2013.91649       201.63988         5.90723
     2013.91923       195.97252         6.11104
     2013.92197       189.21516         6.06984
     2013.92470       197.50580         5.87579
     2013.92744       195.40344         5.93650
     2013.93018       196.04009         6.08936
     2013.93292       193.82573         5.84218
     2013.93566       192.39737         5.85953
     2013.93838       193.47601         5.95059
     2013.94112       193.20465         6.01130
     2013.94387       196.43729         5.97986
     2013.94661       190.08794         6.01998
     2013.94935       192.95558         5.88772
     2013.95208       193.12522         5.98745
     2013.95482       194.58486         5.93433
     2013.95756       191.14750         5.92674
     2013.96030       196.91614         6.16633
     2013.96303       191.08879         6.03624
     2013.96577       196.46543         5.92783
     2013.96851       192.04607         5.94842
     2013.97125       200.34971         5.85845
     2013.97399       197.42735         5.96902
     2013.97672       190.50700         6.03840
     2013.97946       188.49464         5.91157
     2013.98220       188.96628         5.94626
     2013.98494       193.55292         5.90072
     2013.98767       183.17656         5.94192
     2013.99041       184.96720         5.93542
     2013.99315       181.58785         5.90940
     2013.99589       194.85249         5.88988
     2013.99863       191.66013         6.01130
     2014.00136       177.80477         5.91265
     2014.00410       190.89741         5.95601
     2014.00684       190.57005         6.18476
     2014.00958       191.39870         5.85519
     2014.01232       190.17534         6.03082
     2014.01505       191.36498         6.01130
     2014.01779       192.73062         6.00371
     2014.02053       195.20226         5.93867
     2014.02327       194.30190         6.46445
     2014.02600       205.21555         6.20536
     2014.02874       205.76819         6.14031
     2014.03148       202.15083         5.95276
     2014.03421       204.78047         6.04708
     2014.03695       192.55511         6.19560
     2014.03971       189.37276         5.93325
     2014.04243       194.43240         6.16091
     2014.04517       192.86204         6.17825
     2014.04791       197.42068         6.02431
     2014.05065       195.18832         5.83351
     2014.05338       192.00296         5.88772
     2014.05612       190.99461         6.10887
     2014.05886       187.53125         6.02431
     2014.06160       190.12289         5.92566
     2014.06433       194.29253         6.09044
     2014.06707       197.51317         6.12838
     2014.06981       195.56381         6.05141
     2014.07255       193.89946         5.94409
     2014.07529       196.04610         5.89964
     2014.07802       194.10074         6.03190
     2014.08076       196.75238         5.87687
     2014.08350       199.77402         5.99829
     2014.08624       190.78266         5.97227
     2014.08898       188.56831         6.11754
     2014.09171       192.83995         6.23246
     2014.09445       194.95559         6.02106
     2014.09719       195.86623         6.61731
     2014.09992       199.84487         6.02973
     2014.10266       198.24752         6.06334
     2014.10540       199.34716         5.85302
     2014.10814       199.95880         5.91373
     2014.11088       191.16644         6.14248
     2014.11361       201.70208         6.10670
     2014.11635       203.24272         6.06984
     2014.11909       201.05236         6.08177
     2014.12183       201.81901         6.35279
     2014.12457       196.74365         5.94409
     2014.12731       205.59229         6.13055
     2014.13004       206.40393         6.15549
     2014.13278       202.63057         6.61189
     2014.13552       195.42322         6.28666
     2014.14099       194.74150         5.96902
     2014.14373       192.80714         5.93975
     2014.14647       191.38778         5.98095
     2014.14921       192.74143         5.89964
     2014.15195       181.29907         6.05033
     2014.15468       195.90471         6.07960
     2014.15742       196.57035         6.03840
     2014.16016       197.24199         6.23679
     2014.16240       192.86652         7.44014
     2014.16838       192.71292         6.17825
     2014.17111       196.67656         6.28449
     2014.17385       204.35920         6.41675
     2014.17659       200.57384         6.19668
     2014.17932       198.28748         6.34195
     2014.18206       190.89613         6.06768
     2014.18480       189.96177         5.94951
     2014.18754       191.25641         6.00480
     2014.19028       195.08605         6.85039
     2014.19301       193.31369         6.05683
     2014.19575       193.22833         6.02431
     2014.19849       203.42298         6.24547
     2014.20123       195.26262         6.08719
     2014.20397       199.16426         6.00913
     2014.20670       194.58690         6.00155
     2014.20944       194.95154         6.06334
     2014.21218       195.73519         6.18801
     2014.21492       195.13983         6.17825
     2014.21765       191.18547         6.01672
     2014.22039       189.76711         6.00046
     2014.22313       189.94175         5.92241
     2014.22587       199.87639         5.96252
     2014.22861       203.15504         5.95493
     2014.23134       196.58968         6.02323
     2014.23408       194.38532         5.93650
     2014.23682       196.97596         6.05358
     2014.23956       195.39960         6.14031
     2014.24230       187.08124         5.96360
     2014.24503       185.44789         5.92024
     2014.24760       191.09249         7.22115
     2014.25051       192.73117         6.56961
     2014.25325       190.38781         6.21728
     2014.25598       195.38745         6.22921
     2014.25872       191.68509         6.00263
     2014.26146       196.44674         6.30726
     2014.26420       189.48138         5.96577
     2014.26694       204.31502         6.51107
     2014.26968       187.93066         6.02214
     2014.27241       189.34530         6.37989
     2014.27515       190.20795         6.36689
     2014.27789       191.95959         6.15332
     2014.28062       193.96223         6.43627
     2014.28336       193.76287         6.05141
     2014.28610       205.21351         6.34629
     2014.28884       193.94115         6.46229
     2014.29158       194.59680         6.15440
     2014.29431       198.70444         6.22704
     2014.29705       194.68408         6.10128
     2014.29979       193.18672         6.03298
     2014.30253       191.92636         6.01455
     2014.30527       196.40000         6.11104
     2014.30800       192.03865         6.52299
     2014.31074       195.83829         6.34629
     2014.31348       196.09793         6.17717
     2014.31622       194.15657         6.08177
     2014.31895       201.95121         5.98528
     2014.32169       183.10886         6.15982
     2014.32443       186.93850         6.41133
     2014.32717       183.38414         6.18259
     2014.32991       190.09178         6.26823
     2014.33264       193.23842         6.22704
     2014.33538       190.94006         6.11538
     2014.33812       192.74271         6.30076
     2014.34086       190.63835         6.34412
     2014.34360       192.94099         6.17825
     2014.34633       190.00763         6.85798
     2014.34908       187.53527         7.26235
     2014.35181       193.95991         6.52516
     2014.35455       187.74756         5.96143
     2014.35728       187.33820         5.99287
     2014.36002       184.43684         6.10453
     2014.36276       185.89248         6.52842
     2014.36550       191.72712         6.16091
     2014.36824       194.10176         6.19993
     2014.37097       189.77341         6.45795
     2014.37371       193.12905         5.98637
     2014.37645       193.88569         6.00588
     2014.37920       192.05033         6.13272
     2014.38193       182.56197         7.00325
     2014.38466       197.70762         6.38640
     2014.38740       191.03326         6.81462
     2014.39014       203.29790         6.35388
     2014.39290       190.23954         6.12188
     2014.39561       191.67018         6.02323
     2014.39835       193.19882         7.13226
     2014.40109       192.87047         6.12296
     2014.40383       192.86511         6.02973
     2014.40657       192.11375         6.21728
     2014.40930       186.47039         6.36472
     2014.41204       192.10203         5.97770
     2014.41478       188.15367         6.09911
     2014.41752       184.91132         7.72526
     2014.42026       190.96496         5.95059
     2014.42299       189.15260         5.91590
     2014.42573       185.03324         6.18042
     2014.42847       191.82888         6.52625
     2014.43121       191.35852         6.02323
     2014.43394       188.45017         6.08610
     2014.43668       207.80181         7.80439
     2014.43942       195.47545         6.02323
     2014.44216       191.08309         5.91482
     2014.44490       195.93373         6.47096
     2014.44763       195.06338         6.20536
     2014.45037       192.59902         6.00913
     2014.45311       195.05466         6.06334
     2014.45585       195.56630         5.94084
     2014.45859       188.55594         5.92241
     2014.46132       189.29158         6.04925
     2014.46406       202.48323         6.19777
     2014.46680       184.56687         6.40808
     2014.46954       190.31551         6.06551
     2014.47227       193.72115         5.96794
     2014.47501       197.44679         6.00480
     2014.47775       191.38543         5.96143
     2014.48007       191.30398         7.34907
     2014.48323       195.56072         6.02648
     2014.48596       200.86136         6.10345
     2014.48870       207.26200         6.09803
     2014.49144       194.49264         5.85953
     2014.49418       192.72428         5.84760
     2014.49692       194.95493         5.88663
     2014.49965       203.40657         6.02214
     2014.50239       196.95521         6.03298
     2014.50513       193.00685         5.92566
     2014.50787       199.88949         5.96360
     2014.51060       195.13914         6.02648
     2014.51334       197.25978         5.93000
     2014.51608       194.97542         5.88338
     2014.51882       197.80906         7.11599
     2014.52156       208.23370         9.28960
     2014.52429       199.02034         6.11863
     2014.52703       198.97799         5.90723
     2014.52977       197.82163         5.90181
     2014.53251       193.41727         6.07852
     2014.53525       200.62691         5.94842
     2014.53798       198.29955         5.86712
     2014.54072       198.09119         6.07093
     2014.54346       197.35784         5.90289
     2014.54620       207.90548         6.19560
     2014.54893       204.11512         5.93000
     2014.55167       199.64376         5.94517
     2014.55441       196.44140         6.08285
     2014.55715       196.38105         6.38531
     2014.55989       203.47169         6.25306
     2014.56262       194.49433         6.05575
     2014.56536       194.65797         5.85953
     2014.56810       192.85261         5.86170
     2014.57084       192.18525         6.07310
     2014.57357       191.07390         5.89530
     2014.57631       192.88754         5.99721
     2014.57905       193.16618         5.96469
     2014.58179       191.44082         6.24005
     2014.58453       192.18846         6.07852
     2014.58726       195.04810         6.25631
     2014.59000       198.17775         6.04057
     2014.59274       199.08939         6.03407
     2014.59548       198.05603         6.02540
     2014.59822       204.55367         6.24547
     2014.60095       202.71031         6.23571
     2014.60369       197.90395         5.99829
     2014.60643       196.07560         6.00263
     2014.60917       196.31324         6.09586
     2014.61190       201.91788         6.12296
     2014.61464       208.36652         6.12730
     2014.61738       190.62116         6.38965
     2014.62012       203.02481         6.23679
     2014.62286       203.98045         6.06659
     2014.62559       198.26009         5.93650
     2014.62833       203.71373         6.01998
     2014.63107       204.56137         6.13272
     2014.63383       205.22902         6.21511
     2014.63655       205.74866         6.11321
     2014.63928       195.13730         6.03732
     2014.64202       196.30594         5.90398
     2014.64476       192.36858         5.90831
     2014.64752       197.70923         6.18476
     2014.65025       200.15387         6.06984
     2014.65297       201.21151         6.26281
     2014.65571       201.50015         6.70079
     2014.65845       211.31579         6.19668
     2014.66119       205.96043         6.08285
     2014.66392       202.28907         5.88772
     2014.66666       207.71171         5.99287
     2014.66940       209.07136         6.36689
     2014.67214       200.77000         6.20319
     2014.67480       193.71562         7.47049
     2014.67766       197.78929         6.96964
     2014.68035       199.31692         6.06984
     2014.68309       195.16057         6.08827
     2014.68583       198.56521         6.32135
     2014.68856       197.69685         6.25197
     2014.69130       196.41449         6.28775
     2014.69404       196.02013         6.12838
     2014.69678       195.94577         6.01130
     2014.69952       202.05042         5.91265
     2014.70225       202.72906         5.89747
     2014.70499       199.27070         6.52625
     2014.70773       200.74834         6.07310
     2014.71047       201.99898         6.03732
     2014.71321       204.28662         5.99396
     2014.71594       202.77327         6.22704
     2014.71868       203.89491         5.92349
     2014.72142       199.32055         5.92024
     2014.72416       203.84919         6.00263
     2014.72689       201.77783         6.19235
     2014.72963       209.83147         6.20427
     2014.73237       199.52512         6.15766
     2014.73511       200.96676         6.39290
     2014.73785       194.80140         6.04925
     2014.74058       202.83304         5.94192
     2014.74307       206.69662         7.26126
     2014.74880       201.11297         5.95493
     2014.75154       196.00061         6.33870
     2014.75427       202.91125         5.99504
     2014.75701       203.27489         6.22812
     2014.75977       210.40154         6.12838
     2014.76249       204.14918         5.99179
     2014.76522       200.56482         6.16199
     2014.76798       200.40246         6.10887
     2014.77070       192.51010         8.23370
     2014.77344       209.47074         6.34954
     2014.77618       207.94338         6.45036
     2014.77891       203.02103         6.01781
     2014.78165       205.17667         6.13706
     2014.78439       208.11731         5.96902
     2014.78713       206.24295         6.03624
     2014.78987       207.77159         6.10128
     2014.79260       200.77124         6.20861
     2014.80141       206.98330         8.60879
     2014.80355       204.97080         6.20969
     2014.80629       210.87444         6.19560
     2014.80903       207.23509         6.20861
     2014.81178       206.60373         5.90289
     2014.81451       209.10337         5.95601
     2014.81724       207.77201         6.25522
     2014.81998       203.71065         6.01239
     2014.82272       220.85929         6.32786
     2014.82546       215.36394         6.13055
     2014.82820       196.27858         6.18693
     2014.83093       200.56222         6.43085
     2014.83367       200.69486         6.08394
     2014.83641       196.46050         5.99287
     2014.83915       206.66914         6.25956
     2014.84188       203.19179         6.41675
     2014.84462       204.86443         6.26932
     2014.84736       206.24507         6.24655
     2014.85010       198.24771         6.19126
     2014.85284       195.15735         6.03298
     2014.85557       199.35300         6.02431
     2014.85831       205.76764         6.27474
     2014.86105       193.96028         6.10562
     2014.86379       197.86592         6.45795
     2014.86653       196.28556         6.12838
     2014.86926       194.98320         6.13814
     2014.87200       195.68385         6.07310
     2014.87474       194.25749         5.92457
     2014.87748       191.76313         5.94951
     2014.88021       193.44377         6.13489
     2014.88261       204.99733         7.23091
     2014.88571       208.26906         6.59780
     2014.88845       204.02170         6.80052
     2014.89117       209.62634         6.53600
     2014.89390       197.41498         6.30184
     2014.89664       201.38162         6.20969
     2014.89938       196.17226         6.29967
     2014.90212       195.82091         6.22378
     2014.90485       200.84955         6.39941
     2014.90759       195.12719         6.71163
     2014.91033       198.42983         6.24113
     2014.91307       198.40647         6.05033
     2014.91581       195.28411         6.37122
     2014.91854       202.29476         6.03949
     2014.92128       195.50540         5.95818
     2014.92402       195.12204         6.07418
     2014.92676       204.09068         6.32461
     2014.92950       194.09432         5.93433
     2014.93224       187.60597         6.00805
     2014.93497       189.16961         6.14790
     2014.93771       186.34025         6.33436
     2014.94045       191.51189         6.42326
     2014.94318       203.33053         6.45036
     2014.94592       192.29717         6.21186
     2014.94866       184.79181         5.88880
     2014.95140       189.00546         5.82484
     2014.95414       187.76410         5.96577
     2014.95687       199.10974         6.08936
     2014.95961       199.09938         5.90289
     2014.96235       198.16202         5.92566
     2014.96509       204.71567         6.07852
     2014.96783       195.00231         5.90831
     2014.97056       200.27395         6.20752
     2014.97330       191.56259         5.95927
     2014.97604       194.88923         6.14573
     2014.97878       196.77887         5.89639
     2014.98151       196.57652         5.98962
     2014.98425       190.22216         6.02973
     2014.98699       201.63580         5.99070
     2014.98973       193.79144         5.88880
     2014.99247       191.41508         6.51866
     2014.99522       187.50173         5.86387
     2014.99794       196.91337         6.05467
     2015.00342       194.19465         6.04925
     2015.00616       190.32429         5.81725
     2015.00889       194.79293         6.03515
     2015.01163       197.44257         6.06009
     2015.01437       203.12122         6.17175
     2015.01711       202.79886         6.26932
     2015.01984       199.94750         6.22921
     2015.02258       197.71414         6.22921
     2015.02532       199.09078         5.93108
     2015.02806       197.16843         5.99179
     2015.03080       196.76507         6.04166
     2015.03355       189.56871         5.95385
     2015.03627       193.80035         6.15115
     2015.03901       201.08999         6.00913
     2015.04175       210.07163         6.25089
     2015.04449       194.62328         6.02106
     2015.04722       199.71292         6.27040
     2015.04996       200.81156         5.98745
     2015.05270       191.15620         6.90785
     2015.05544       189.67384         6.19018
     2015.05817       193.82948         5.95927
     2015.06092       199.55113         5.94626
     2015.06365       203.82077         6.15440
     2015.06639       198.21741         5.91699
     2015.06913       190.86505         6.00480
     2015.07186       197.32269         6.72138
     2015.07460       195.10133         5.90398
     2015.07734       186.27298         5.92674
     2015.08008       185.15162         6.08719
     2015.08282       193.50026         5.88013
     2015.08555       202.85990         5.97553
     2015.08829       204.30554         5.98420
     2015.09103       198.97519         6.01022
     2015.09377       195.40983         6.49481
     2015.09650       197.75147         6.11538
     2015.09919       208.31510         6.38531
     2015.10198       207.41775         5.96902
     2015.10472       200.16839         6.28775
     2015.10746       196.12804         5.90289
     2015.11019       189.94968         6.22812
     2015.11293       195.76532         6.19343
     2015.11567       201.09796         6.08285
     2015.11841       193.50660         6.05141
     2015.12115       201.60924         5.98312
     2015.12388       195.71289         5.93216
     2015.12662       190.17353         5.94517
     2015.12936       195.50917         5.92349
     2015.13210       196.99781         6.10670
     2015.13483       194.01745         6.00263
     2015.13757       198.29109         6.07201
     2015.14031       191.11474         5.92024
     2015.14305       191.13538         5.84544
     2015.14579       196.55802         5.87796
     2015.14852       198.52666         5.96469
     2015.15126       189.98630         6.06442
     2015.15400       197.82795         5.92783
     2015.15674       201.74659         5.89639
     2015.15948       199.84423         5.95059
     2015.16223       201.04587         5.95385
     2015.16495       195.74851         5.86929
     2015.16769       197.24216         5.90289
     2015.17043       196.91080         5.88013
     2015.17316       193.13844         6.05683
     2015.17590       195.09708         6.32135
     2015.17864       198.76772         5.87904
     2015.18138       198.79936         5.88013
     2015.18412       201.39000         5.88988
     2015.18685       202.12965         5.86603
     2015.18959       205.77129         6.03732
     2015.19233       194.74693         6.26715
     2015.19505       196.74857         5.86712
     2015.19780       206.17721         6.04816
     2015.20054       199.52586         5.93000
     2015.20328       193.27750         5.85086
     2015.20602       199.21814         6.35821
     2015.20876       192.73078         6.05467
     2015.21149       191.15042         6.01564
     2015.21423       201.58906         6.29642
     2015.21697       204.24071         5.97227
     2015.21971       190.61935         6.28016
     2015.22245       198.00299         6.04274
     2015.22518       197.65563         5.85411
     2015.22792       199.61127         6.00263
     2015.23066       198.28491         6.42001
     2015.23340       191.06656         6.12188
     2015.23613       203.54620         6.11646
     2015.23887       197.73584         6.14790
     2015.24161       199.80448         6.54359
     2015.24436       202.38613         6.30834
     2015.24709       193.92376         6.25848
     2015.24982       198.05741         5.94626
     2015.25256       201.32605         5.91157
     2015.25530       197.40869         5.89639
     2015.25804       191.05433         5.89964
     2015.26078       198.66797         5.88988
     2015.26351       198.88462         5.89314
     2015.26625       195.26826         5.85845
     2015.26899       196.32490         6.00046
     2015.27173       204.57454         6.03407
     2015.27446       206.71018         6.60972
     2015.27720       197.17282         6.05575
     2015.27994       200.20047         6.28341
     2015.28268       199.52011         5.97770
     2015.28542       201.36975         6.15549
     2015.28815       193.19739         6.06768
     2015.29089       193.29003         5.98203
     2015.29363       198.14067         6.00697
     2015.29637       197.61232         6.15223
     2015.29911       202.24796         6.15874
     2015.30184       202.22360         6.08502
     2015.30457       200.41924         6.05900
     2015.30692       196.55579         7.22332
     2015.31279       192.93717         5.78147
     2015.31553       191.59481         5.77172
     2015.31827       194.43245         5.88121
     2015.32055       190.30498         7.37943
     2015.32488       195.98500        14.40978
     2015.32648       200.87738         6.18151
     2015.32922       196.61902         5.94517
     2015.33196       201.33666         5.79015
     2015.33470       196.70730         5.74462
     2015.33744       194.26294         5.81617
     2015.34017       193.60758         5.88880
     2015.34291       188.51423         5.80316
     2015.34565       193.86487         5.80207
     2015.34839       192.27651         6.59997
     2015.35112       191.46015         5.95059
     2015.35352       198.32971         6.73114
     2015.35740       196.78662         8.80501
     2015.35936       191.27208         5.89964
     2015.36208       193.40772         5.79882
     2015.36481       198.45236         5.77822
     2015.36755       197.92000         5.75437
     2015.37029       199.17964         5.73486
     2015.37303       194.36729         5.94084
     2015.37577       192.42193         5.75654
     2015.37850       188.17057         5.85845
     2015.38124       188.41521         5.67306
     2015.38398       192.14585         5.81617
     2015.38672       196.37649         5.76196
     2015.38945       191.37614         5.76955
     2015.39219       191.39578         5.93325
     2015.39493       197.82642         7.55614
     2015.39767       195.01506         5.95276
     2015.40041       195.62870         6.27040
     2015.40314       193.36834         5.89964
     2015.40588       193.02499         5.90940
     2015.40862       206.21563         5.97119
     2015.41137       197.91327         5.70667
     2015.41410       198.54091         5.87471
     2015.41683       199.60155         5.91265
     2015.41957       193.94619         5.84218
     2015.42231       198.42084         5.83785
     2015.42505       196.05948         6.12188
     2015.42778       195.82412         5.91590
     2015.43052       202.81976         6.02214
     2015.43326       194.03740         5.85194
     2015.43600       201.36305         7.12467
     2015.43874       199.97869         5.84218
     2015.44147       198.14733         6.01564
     2015.44422       198.98697         5.94951
     2015.44695       196.37161         5.83134
     2015.44969       195.96625         5.76955
     2015.45243       202.17390         6.00913
     2015.45516       203.14954         5.91699
     2015.45790       196.99518         6.06442
     2015.46064       206.02482         7.81415
     2015.46338       205.22946         5.99938
     2015.46611       202.92210         5.91373
     2015.46887       203.25775         5.75546
     2015.47159       206.02039         5.99721
     2015.47434       205.20403         6.57720
     2015.47707       196.04867         6.33328
     2015.47980       201.05531         6.03190
     2015.48254       202.53295         5.81942
     2015.48528       200.89060         5.89964
     2015.48802       200.11724         5.85628
     2015.49076       202.18388         5.96685
     2015.49350       201.49752         5.99179
     2015.49623       196.72416         6.01564
     2015.49897       198.44081         6.04816
     2015.50171       202.88645         6.07201
     2015.50444       198.81709         6.04708
     2015.50718       200.69273         5.78256
     2015.50992       200.80137         5.94734
     2015.51266       202.20001         6.30292
     2015.51540       198.77666         5.82050
     2015.51813       204.04030         5.78689
     2015.52087       202.61794         6.32569
     2015.52361       207.58758         6.04274
     2015.52635       201.24222         5.76521
     2015.52908       203.75386         5.98962
     2015.53182       205.19751         5.79015
     2015.53456       203.31215         5.84327
     2015.53730       207.55779         5.86387
     2015.54004       204.07143         6.04599
     2015.54277       201.41007         5.91590
     2015.54551       215.98271         6.15332
     2015.54825       211.87236         6.13597
     2015.55099       208.73000         5.95818
     2015.55373       213.80164         6.06334
     2015.55646       211.71528         6.05141
     2015.55886       218.79384         6.93170
     2015.56293       202.14980        13.09694
     2015.56451       208.39317         6.94579
     2015.56857       202.57012        18.69412
     2015.57015       210.05749         6.21511
     2015.57289       204.29313         6.19777
     2015.57563       205.93877         6.06442
     2015.57837       198.43042        10.40947
     2015.58112       204.49006         5.92891
     2015.58384       211.14370         5.94409
     2015.58658       218.37534         6.60972
     2015.58933       213.47799         6.05575
     2015.59206       214.34062         6.20210
     2015.59479       208.67927         5.98420
     2015.59753       206.62791         6.00913
     2015.60027       209.17855         6.10128
     2015.60301       217.09219         6.17825
     2015.60574       204.96383         5.99396
     2015.60848       211.07648         5.97661
     2015.61122       208.33812         6.16850
     2015.61396       209.15976         6.08502
     2015.61943       204.23104         5.95927
     2015.62217       205.56068         5.82917
     2015.62491       213.87733         5.98962
     2015.62765       202.38397         6.41675
     2015.63039       218.21261         9.72649
     2015.63312       205.78925         5.85736
     2015.63586       210.50389         5.91157
     2015.63860       201.66853         5.72185
     2015.64134       206.47318         5.86278
     2015.64407       209.16982         5.92024
     2015.64681       205.50746         6.03190
     2015.64955       205.59510         5.79340
     2015.65229       206.07774         6.20969
     2015.65503       219.99238         5.94517
     2015.65776       208.45003         6.55877
     2015.66050       216.45067         5.86929
     2015.66324       220.19331         5.97227
     2015.66598       216.27895         6.32352
     2015.66872       210.78759         6.22053
     2015.67145       203.99924         5.79015
     2015.67418       198.30487         5.74028
     2015.67693       202.28852         5.72185
     2015.67967       209.45016         5.84110
     2015.68240       205.38380         5.84544
     2015.68514       203.43944         6.03190
     2015.68789       197.52509         5.94517
     2015.69062       208.49073         5.75546
     2015.69336       205.21037         6.04383
     2015.69609       208.31601         5.78581
     2015.69883       207.21365         6.03840
     2015.70157       203.91829         5.88013
     2015.70431       207.95894         5.91915
     2015.70705       206.71958         5.79448
     2015.70978       210.15622         5.79123
     2015.71252       207.74386         5.87579
     2015.71526       208.65250         5.79882
     2015.71800       222.45114         6.19235
     2015.72073       208.94879         5.89422
     2015.72347       205.70843         5.95385
     2015.72621       202.43407         6.06334
     2015.72895       202.89771         6.10562
     2015.73169       199.47635         6.23246
     2015.73442       198.90500         5.76630
     2015.73716       204.66364         5.78364
     2015.73990       204.21228         5.97878
     2015.74264       205.42592         6.06117
     2015.74538       206.52756         6.02540
     2015.74811       200.18120         6.14790
     2015.75085       198.08185         5.80749
     2015.75359       198.04749         5.89205
     2015.75633       204.17313         5.75654
     2015.75906       202.24577         5.79232
     2015.76180       198.21041         5.78689
     2015.76454       210.99905         8.49279
     2015.76728       206.80670         6.02214
     2015.77002       218.95834         6.20319
     2015.77275       219.68798         6.04166
     2015.77549       204.47962         5.93867
     2015.77823       205.22526         5.80749
     2015.78097       203.03191         5.94517
     2015.78372       207.01855         5.92566
     2015.78644       208.03819         5.90831
     2015.78918       202.37183         5.76630
     2015.79192       208.57347         5.91157
     2015.79468       206.05612         6.00697
     2015.79739       207.69076         5.96252
     2015.80013       203.05640         6.06768
     2015.80287       202.95404         6.33003
     2015.80561       204.38868         5.86170
     2015.80835       196.37232         5.84218
     2015.81108       197.29296         5.89530
     2015.81382       207.72061         6.01347
     2015.81656       204.12125         6.05792
     2015.81930       196.76189         5.85519
     2015.82203       207.00953         6.12730
     2015.82477       204.68017         6.06876
     2015.82753       205.20582         5.96577
     2015.82928       217.66023        11.55644
     2015.83682       200.26200        12.75437
     2015.83846       197.95638         6.30834
     2015.84120       199.10202         6.06225
     2015.84394       197.61367         5.92891
     2015.84668       197.60231         6.02648
     2015.84941       208.21495         7.33173
     2015.85215       201.23359         7.27969
     2015.85489       207.59623         6.66718
     2015.85797       199.19396         6.97073
     2015.86036       204.22652         9.36657
     2015.86310       200.60116         6.19993
     2015.86584       204.54580         9.13783
     2015.86858       199.27144         7.01843
     2015.87132       198.25808         9.66036
     2015.87405       195.94272         7.06721
     2015.87673       198.58035        13.45361
     2015.87963       194.77903         6.41459
     2015.88227       202.38165         5.93000
     2015.88501       193.48929         7.97134
     2015.88775       194.08593         6.59346
     2015.89048       201.26957         5.97553
     2015.89322       206.40922         5.99938
     2015.89598       201.93386         6.32352
     2015.89869       198.36350         6.14031
     2015.90143       194.01914         6.13814
     2015.90418       194.83278         6.11971
     2015.90691       199.47743         6.34195
     2015.90868       201.66184        11.43828
     2015.91323       196.06891         9.44897
     2015.91512       197.81735         5.92457
     2015.91786       201.87099         6.13706
     2015.92060       208.33763         6.35821
     2015.92334       207.29228         7.05745
     2015.92607       195.65492         6.38423
     2015.92881       197.33756         6.13272
     2015.93155       212.19220         6.50131
     2015.93429       220.93284         7.52578
     2015.93702       202.39848         6.14031
     2015.93976       207.03113         6.49047
     2015.94250       198.64677         6.26281
     2015.94524       201.20441         7.56047
     2015.94799       209.32005         5.99396
     2015.95071       205.85569         5.88555
     2015.95346       198.54234         6.08502
     2015.95619       203.25098         6.21511
     2015.95893       198.14262         6.19343
     2015.96167       216.37026         6.36255
     2015.96441       212.74390         6.13706
     2015.96716       211.25655         6.24872
     2015.96989       205.43019         6.31160
     2015.97262       217.38183         6.06984
     2015.97535       206.58047         6.19235
     2015.97809       202.72611         5.99179
     2015.98083       201.37975         5.93542
     2015.98357       191.69439         5.88121
     2015.98631       198.49404         6.35388
     2015.98904       193.90268         6.21728
     2015.99178       193.77232         6.17392
     2015.99452       195.31396         6.03298
     2015.99709       196.46656         6.36038
     2015.99983       197.58421         6.56311
     2016.00273       195.82889         6.10128
     2016.00548       198.32553         6.24330
     2016.00821       195.81517         6.08285
     2016.01095       203.26681         6.42543
     2016.01368       198.74645         6.37664
     2016.01642       190.03210         6.13814
     2016.01916       193.75874         6.26606
     2016.02190       196.22538         6.22812
     2016.02464       198.42802         6.17392
     2016.02737       200.63466         6.16633
     2016.03011       197.15630         6.12947
     2016.03285       205.57595         6.01022
     2016.03559       197.27559         6.25306
     2016.03833       192.28923         6.54576
     2016.04089       196.32283         6.60647
     2016.04733       201.18934         8.57627
     2016.04928       192.87980         6.80161
     2016.05202       194.94344         6.05141
     2016.05475       198.52208         6.11971
     2016.05749       198.92672         5.99396
     2016.06023       198.85136         6.32461
     2016.06297       195.83600         6.24547
     2016.06570       194.82965         6.12730
     2016.06781       195.21514         8.72913
     2016.07213       188.45615        11.56186
     2016.07392       196.64257         6.19777
     2016.07666       195.58421         6.25739
     2016.07939       203.66786         6.20752
     2016.08213       192.81150         6.99024
     2016.08487       189.48114         7.53662
     2016.08761       191.66478         6.02973
     2016.09040       187.98144         6.44602
     2016.09263       196.22396         7.40978
     2016.09589       191.08672         6.36472
     2016.09856       191.11435         6.88183
     2016.10130       182.23199         6.20427
     2016.10403       186.81263         6.45687
     2016.10677       188.12927         6.34412
     2016.10951       191.74591         6.22053
     2016.11225       186.96556         6.65959
     2016.11498       198.05220         6.29967
     2016.11772       192.42684         5.99070
     2016.12046       193.33348         5.99829
     2016.12320       197.64912         6.06334
     2016.12594       191.39976         6.04816
     2016.12867       198.56941         6.09369
     2016.13141       205.29105         6.19235
     2016.13415       198.34869         6.42759
     2016.13689       195.70333         6.35930
     2016.13963       187.99897         6.36038
     2016.14236       190.04062         6.23246
     2016.14510       188.70926         6.23246
     2016.14784       193.32890         6.00588
     2016.15058       190.26754         6.12622
     2016.15332       190.25618         7.48133
     2016.15605       196.75982         6.43518
     2016.15880       194.03147         6.20210
     2016.16152       196.55311         6.50890
     2016.16427       192.96675         6.70621
     2016.16700       197.55239         6.01889
     2016.16976       193.98104         6.11538
     2016.17248       189.69767         6.15982
     2016.17522       198.41832         6.44277
     2016.17796       210.92396         6.25848
     2016.18069       196.05160         6.27907
     2016.18343       185.70524         6.62924
     2016.18617       197.97688         5.98854
     2016.18891       199.27652         6.03515
     2016.19164       196.96817         6.04925
     2016.19438       203.31681         5.99721
     2016.19712       193.56645         7.28294
     2016.19986       198.11809         5.93650
     2016.20666       174.99569        86.99856
     2016.20807       192.20302         6.47963
     2016.21081       189.24266         6.02756
     2016.21355       195.33330         6.16308
     2016.21623       194.32993         8.09060
     2016.21903       188.52359         7.28511
     2016.22176       194.72323         6.04274
     2016.22450       188.71187         7.60384
     2016.22724       189.52751         6.03298
     2016.22992       193.05514         6.34412
     2016.23271       189.36079         8.66083
     2016.23545       200.49043         6.46229
     2016.23819       196.49908         6.22921
     2016.24093       194.19272         5.91699
     2016.24366       190.35336         5.93325
     2016.24640       192.45500         5.77497
     2016.24914       190.91264         5.91157
     2016.25188       196.61829         5.84327
     2016.25462       190.91193         6.03840
     2016.25735       197.95557         5.94300
     2016.26009       193.41921         5.94409
     2016.26283       186.18485         5.89314
     2016.26557       197.88349         6.02756
     2016.26830       193.58314         5.87687
     2016.27104       194.45078         5.87037
     2016.27378       199.41142         5.96035
     2016.27652       198.55806         6.02973
     2016.27928       197.86971         6.03949
     2016.28199       191.93334         6.02973
     2016.28473       199.83399         5.92674
     2016.28747       191.69263         5.89747
     2016.29021       185.66627         5.91373
     2016.29295       191.82391         6.12080
     2016.29568       196.12155         5.93000
     2016.29842       195.08019         5.97119
     2016.30116       193.43484         5.97011
     2016.30390       191.17648         6.04816
     2016.30663       197.41512         6.23463
     2016.30937       192.48676         5.82159
     2016.31211       194.12740         5.97119
     2016.31485       196.50905         5.91482
     2016.31759       196.27069         5.91048
     2016.32032       190.45833         6.12296
     2016.32306       190.38497         5.92566
     2016.32580       189.68061         5.86495
     2016.32854       194.02725         5.82159
     2016.33128       192.43090         6.02648
     2016.33401       195.04454         6.09478
     2016.33675       198.92618         6.01239
     2016.33949       195.11782         6.00155
     2016.34223       193.97246         6.04925
     2016.34496       195.09110         5.98854
     2016.34770       199.50775         6.07635
     2016.35044       199.63539         6.03190
     2016.35318       195.55903         5.95927
     2016.35592       185.33567         5.83243
     2016.35865       190.69031         5.85628
     2016.36140       194.67396         5.98095
     2016.36413       201.77860         6.10670
     2016.36687       201.11224         5.92132
     2016.36961       207.29888         5.96035
     2016.37234       203.49252         5.82701
     2016.37508       197.84616         5.89314
     2016.37782       193.97681         5.95385
     2016.38055       198.84744         5.92891
     2016.38329       203.51309         5.95927
     2016.38603       199.46573         5.85953
     2016.38877       208.00737         5.91048
     2016.39151       199.54701         5.92349
     2016.39425       195.94466         5.93867
     2016.39698       204.72330         5.96685
     2016.39972       205.87094         6.13164
     2016.40246       202.62958         6.09911
     2016.40520       196.18522         5.90723
     2016.40794       199.25786         5.90506
     2016.41067       195.61951         6.16308
     2016.41341       194.36215         5.96035
     2016.41615       193.04079         6.09911
     2016.41889       214.71243         6.28558
     2016.42162       199.20507         5.94517
     2016.42436       196.58472         5.86712
     2016.42710       201.13336         5.83026
     2016.42984       193.96500         6.02431
     2016.43258       196.55664         5.90940
     2016.43531       204.27028         6.36038
     2016.43805       199.85492         6.05141
     2016.44079       201.54257         5.94517
     2016.44353       193.55721         5.89530
     2016.44626       196.42485         5.96902
     2016.44900       202.18149         5.91482
     2016.45174       209.86213         5.87254
     2016.45448       207.32377         6.00155
     2016.45722       200.68442         5.93108
     2016.45995       199.46406         5.75004
     2016.46269       205.81170         5.95927
     2016.46543       201.06834         5.86387
     2016.46817       201.88498         5.79882
     2016.47091       204.09962         5.84435
     2016.47364       198.18527         5.78906
     2016.47638       201.38991         5.89639
     2016.47912       201.81955         5.96143
     2016.48186       200.95519         6.00480
     2016.48457       196.09883         6.08610
     2016.48733       198.10648         6.14681
     2016.49007       201.50612         5.92457
     2016.49281       195.54176         5.78906
     2016.49555       201.72740         5.90289
     2016.49737       188.26483        19.14944
     2016.50752       198.72321        13.41025
     2016.50924       204.04161         5.81942
     2016.51197       194.61225         5.78689
     2016.51471       205.76689         6.32677
     2016.51745       199.24753         6.01455
     2016.52019       203.90018         5.94409
     2016.52292       197.72682         5.83026
     2016.52566       203.37146         5.87362
     2016.52840       201.17110         5.84110
     2016.53114       200.38074         5.78798
     2016.53388       202.05238         5.90940
     2016.53661       201.56403         5.83568
     2016.53935       200.37867         5.74353
     2016.54112       201.82908         9.83815
     2016.54571       204.43816        10.84094
     2016.54757       199.39459         5.79665
     2016.55030       203.72124         6.11321
     2016.55304       198.79688         5.85519
     2016.55572       207.06051         6.17500
     2016.55830       200.47811         6.32027
     2016.56486       202.12265        13.25414
     2016.56671       209.54208         6.16416
     2016.56947       199.69973         5.93975
     2016.57221       208.22437         6.00155
     2016.57494       205.74701         6.00805
     2016.57768       210.95165         5.85953
     2016.58019       204.59924         6.37339
     2016.58357       198.50203         7.17128
     2016.58590       206.55958         6.04274
     2016.58886       201.82227         6.50890
     2016.59137       200.37286         5.82701
     2016.59411       214.45750         5.91699
     2016.59685       210.17014         5.86170
     2016.59958       204.68679         5.86061
     2016.60232       202.35843         5.83460
     2016.60506       203.09507         5.89422
     2016.60780       207.49771         5.81617
     2016.61054       203.01235         5.79340
     2016.61327       203.88300         5.89097
     2016.61538       207.42549         7.75778
     2016.62002       197.11958        24.28154
     2016.62149       202.53492         5.88555
     2016.62423       205.55056         5.99829
     2016.62696       208.61720         6.01130
     2016.62970       200.88285         5.93650
     2016.63244       205.60449         5.97336
     2016.63518       210.04213         5.81183
     2016.63791       219.40477         5.96469
     2016.64065       212.35141         5.82050
     2016.64339       202.65605         5.95276
     2016.64667       203.49182         7.75236
     2016.64887       202.66134         6.23571
     2016.65052       213.62873        12.59175
     2016.66086       205.52615        11.94021
     2016.66256       202.67655         5.89530
     2016.66529       220.39919         6.26390
     2016.66803       209.92783         6.22595
     2016.67077       215.78847         6.01564
     2016.67351       207.54811         5.93758
     2016.67624       207.79476         5.84435
     2016.67898       204.61340         5.80424
     2016.68172       208.11704         5.80099
     2016.68446       214.08568         6.52842
     2016.68720       212.64832         6.14573
     2016.68993       203.63996         5.97336
     2016.69267       210.13061         5.85194
     2016.69541       209.33725         5.80207
     2016.69763       208.32777         7.44664
     2016.70183       203.13575        10.55040
     2016.70362       207.60117         6.00697
     2016.70635       199.03081         6.39616
     2016.70910       200.99546         6.18584
     2016.71184       212.46510         5.94951
     2016.71457       212.51674         5.91699
     2016.71731       219.97238         6.89267
     2016.72005       211.36302         6.46662
     2016.72279       207.13567         5.78039
     2016.72553       204.18231         5.98745
     2016.72821       208.55494         6.14139
     2016.73101       206.83159         5.88663
     2016.73374       206.87323         5.82484
     2016.73648       210.32587         5.89964
     2016.73921       211.81152         5.91265
     2016.74195       205.91016         5.73594
     2016.74469       202.75280         5.76196
     2016.74743       202.28744         5.82917
     2016.75017       208.15408         5.79015
     2016.75290       207.25672         5.75220
     2016.75563       210.37336         5.78364
     2016.75838       217.47701         5.86387
     2016.76112       208.63565         5.93650
     2016.76386       205.14629         5.79123
     2016.76659       204.32793         6.04166
     2016.76933       214.66357         5.94300
     2016.77207       205.94822         5.76847
     2016.77481       203.33586         5.75979
     2016.77754       199.92750         5.72185
     2016.78028       198.01214         5.98854
     2016.78302       203.34478         5.87037
     2016.78564       202.79140         6.39290
     2016.78871       213.39412         6.46012
     2016.79123       208.75871         5.95601
     2016.79397       212.58235         5.91482
     2016.79671       205.84199         5.86495
     2016.79939       197.93962         6.03949
     2016.80219       205.87428         9.47932
     2016.80492       200.36792         5.80749
     2016.80766       204.64556         5.88663
     2016.81040       201.80520         5.83785
     2016.81262       199.31672         7.55288
     2016.99212       199.07480        11.12606
     2016.99384       202.07820         5.72944
     2016.99657       199.19884         5.84435
     2016.99931       200.70648         5.87254
     2017.00480       198.49577         5.90831
     2017.00752       193.50941         6.74415
     2017.01032       198.53606        12.58959
     2017.01300       201.99069         6.04274
     2017.01574       198.00833         5.79665
     2017.01848       194.98997         5.78906
     2017.02121       196.06162         5.83026
     2017.02395       196.41426         5.92349
     2017.02669       196.72290         6.30184
     2017.02943       200.58154         6.06334
     2017.03216       195.54818         5.75979
     2017.03490       195.65382         5.78473
     2017.03764       193.31447         5.75112
     2017.04038       194.97311         5.76955
     2017.04312       201.45075         5.76521
     2017.04585       202.90439         6.13055
     2017.04859       211.70103         6.15332
     2017.05133       211.62567         5.78256
     2017.05401       204.54930         6.04274
     2017.05681       204.18696         5.81291
     2017.05954       199.21060         6.45578
     2017.06228       195.54024         5.81074
     2017.06502       189.87288         5.88988
     2017.06776       196.09653         5.95710
     2017.07049       192.89117         5.77389
     2017.07323       185.04081         5.93975
     2017.07597       190.34445         5.92024
     2017.07871       202.82309         6.00697
     2017.08145       201.39273        10.11568
     2017.08418       191.58238         5.82701
     2017.08692       195.20702         5.88663
     2017.08966       193.93166         5.98962
     2017.09240       196.29230         6.06442
     2017.09514       180.19694         5.84544
     2017.09787       200.22358         6.38206
     2017.10061       195.15723         5.78689
     2017.10335       190.77387         6.01564
     2017.10609       194.63451         6.06876
     2017.10882       203.64615         6.00480
     2017.11156       199.00079         5.95710
     2017.11430       190.52443         5.83134
     2017.11704       186.49008         5.83351
     2017.11978       189.53272         5.87362
     2017.12251       188.99736         5.82484
     2017.12525       204.02000         6.00588
     2017.12799       213.03864         6.11538
     2017.13073       200.22729         5.82267
     2017.13347       199.15093         5.83785
     2017.13620       201.21357         6.06117
     2017.13894       195.56521         5.88230
     2017.14168       190.40385         5.85628
     2017.14442       194.93349         6.14681
     2017.14715       192.59614         6.26823
     2017.14989       191.84178         5.81400
     2017.15263       201.54242         5.83460
     2017.15537       204.29806         5.83243
     2017.15811       199.22370         8.29007
     2017.16084       200.04534         5.82267
     2017.16358       193.89399         5.92566
     2017.16632       200.69563         5.81400
     2017.16906       202.63827         6.05141
     2017.17180       200.83291         5.83351
     2017.17453       194.52455         6.11754
     2017.17727       190.46719         6.84605
     2017.18001       196.75084         5.87254
     2017.18275       199.73348         5.95168
     2017.18548       195.14212         5.84869
     2017.18822       197.18076         6.06551
     2017.19096       191.61240         5.90506
     2017.19370       199.50805         6.08177
     2017.19644       197.01369         5.80316
     2017.19917       203.23533         5.89639
     2017.20191       205.58997         6.41784
     2017.20465       197.81761         7.43580
     2017.20739       197.13526         6.15332
     2017.21007       204.80388         6.55877
     2017.21286       191.35454         6.02756
     2017.21560       196.04518         6.16416
     2017.21834       194.94782         7.23091
     2017.22108       199.57946         6.28883
     2017.22381       202.22610         6.47313
     2017.22655       201.00875         6.74957
     2017.22929       200.93939         6.83630
     2017.23203       193.55503        16.87718
     2017.23477       188.88467         6.74849
     2017.23800       196.73543         7.52903
     2017.24024       194.71996         6.21836
     2017.24298       192.65960         6.14573
     2017.24572       187.09424         6.28775
     2017.24846       187.58888         6.22162
     2017.25119       192.34752         6.49914
     2017.25393       192.26816         8.82778
     2017.25667       187.72281         6.68995
     2017.25941       194.21945         6.10670
     2017.26214       192.77509         6.95338
     2017.26488       195.85473         6.86340
     2017.26762       199.23637         7.04011
     2017.27036       185.67301         6.56311
     2017.27310       189.41566         6.57178
     2017.27583       186.14730         6.11646
     2017.27858       188.19894         6.44060
     2017.28131       191.21558         6.55877
     2017.28405       187.10122         6.03190
     2017.28679       183.66486         6.63574
     2017.28952       188.07551         6.17066
     2017.29227       187.88515         6.30618
     2017.29500       193.98079         6.60755
     2017.29774       191.23943         6.32786
     2017.30047       178.12107         6.68995
     2017.30321       187.36572         6.44819
     2017.30595       190.26636         6.39832
     2017.30869       187.21200         6.14573
     2017.31143       196.45464         6.42217
     2017.31416       189.50528         5.88013
     2017.31691       199.90792         6.68019
     2017.31964       185.42557         6.49698
     2017.32232       172.85019         6.37122
     2017.32514       181.07185         5.97986
     2017.32688       182.25126        12.45949
     2017.33181       190.28242        21.10731
     2017.33333       176.69177         6.15657
     2017.33607       180.62042         6.04599
     2017.33880       182.81906         6.17934
     2017.34154       190.93270         6.17608
     2017.34428       186.78734         6.10779
     2017.34702       182.58698         5.90615
     2017.34970       187.02061         6.33978
     2017.35249       176.67827        10.60136
     2017.35523       185.67491         6.30509
     2017.35797       182.64955         6.67477
     2017.36071       189.56019         6.74957
     2017.36344       184.41783         6.17283
     2017.36618       176.62548         6.60213
     2017.36892       186.50712         6.05792
     2017.37166       182.44076         6.30834
     2017.37440       182.56140         6.34629
     2017.38073       182.30789        10.42682
     2017.38261       185.45233         5.98637
     2017.38535       179.02897         6.03407
     2017.38723       195.33541        10.25011
     2017.39171       202.38746        12.89530
     2017.39357       194.54389         6.49698
     2017.39630       188.76453         6.16199
     2017.39904       187.16718         6.06009
     2017.40177       183.13182         6.34304
     2017.40429       183.00041        11.64534
     2017.40657       180.61894        13.39073
     2017.40982       195.53170        16.18444
     2017.41274       184.53139         6.15115
     2017.41546       188.77803         6.13706
     2017.41820       187.68267         5.94626
     2017.42094       183.29031         6.46337
     2017.42368       184.58895         6.55118
     2017.42642       186.73059         6.42217
     2017.42915       192.79024         5.94734
     2017.43189       191.05588         6.43952
     2017.43463       188.09552         6.03624
     2017.43737       189.17516         6.44277
     2017.44010       191.83680         6.31376
     2017.44285       191.24445         6.24438
     2017.44559       192.02209         6.21620
     2017.44832       190.93773         6.25414
     2017.45106       194.95637         6.26715
     2017.45380       195.43601         8.01579
     2017.45653       203.94765         6.56202
     2017.45927       188.95729         6.16091
     2017.46195       186.96292         6.58045
     2017.46475       184.83158         5.96252
     2017.46748       188.33222        10.35635
     2017.47022       191.09586         6.38206
     2017.47296       189.90450         5.92024
     2017.47570       187.49415         6.05792
     2017.47843       185.30379         5.86495
     2017.48117       188.93843         6.13055
     2017.48391       200.57207         6.65634
     2017.48665       191.08871         6.18151
     2017.48939       191.24035         6.33545
     2017.49212       184.99100         6.88075
     2017.49487       185.89764         6.58804
     2017.49760       194.88928         6.29859
     2017.50034       190.65792         6.15007
     2017.50302       196.97955         6.81570
     2017.50581       188.40120         5.98203
     2017.50856       185.98785         6.10453
     2017.51129       191.00149         6.28991
     2017.51403       193.96013         5.91482
     2017.51676       192.46877         6.04166
     2017.51951       197.23341         6.20969
     2017.52224       197.75105         6.49481
     2017.52458       185.96960         6.94146
     2017.52896       196.52063        24.10917
     2017.53045       190.25598         6.11863
     2017.53319       187.33462         6.18801
     2017.53485       202.48201        12.42372
     2017.54234       194.84477        11.18568
     2017.54414       189.63619         5.77063
     2017.54688       190.19183         5.90398
     2017.54962       189.47047         6.17283
     2017.55236       195.45711         6.18259
     2017.55458       193.90564         7.44881
     2017.55803       192.82244         6.94254
     2017.56057       191.84604         6.47638
     2017.56331       194.40968         6.31376
     2017.56605       195.32032         5.94842
     2017.56878       196.57296         6.32027
     2017.57152       193.15061         6.18584
     2017.57420       191.00123         6.57720
     2017.57700       190.57389         6.62165
     2017.57974       191.51453         5.98420
     2017.58248       187.59518         6.85364
     2017.58521       191.19881         5.87796
     2017.58795       190.68946         6.01130
     2017.59069       184.87510         6.48614
     2017.59342       190.80174         5.85519
     2017.59616       190.14838         6.31051
     2017.59890       190.47402         6.96205
     2017.60164       190.37867         6.49914
     2017.60438       188.63231         6.32894
     2017.60711       192.92595         6.28016
     2017.60985       190.82059         6.62056
     2017.61259       192.97423         6.35388
     2017.61533       192.88487         6.53926
     2017.61807       197.28952         6.32135
     2017.62080       191.89816         5.91265
     2017.62354       197.87980         6.10562
     2017.62628       198.33644         5.94842
     2017.62902       197.04008         6.24113
     2017.63177       197.70673         5.95818
     2017.63449       189.51837         5.96035
     2017.63723       193.62801         5.77497
     2017.63997       197.41865         5.98854
     2017.64271       198.62929         5.97878
     2017.64544       200.45193         6.13814
     2017.64818       197.81257         9.12482
     2017.65092       196.39522         5.83460
     2017.65263       189.30662        12.33049
     2017.65749       191.39176        12.54297
     2017.65913       197.15314         5.90615
     2017.66187       198.04378         6.12188
     2017.66461       195.43843         6.03082
     2017.66735       199.18907         5.90615
     2017.67008       204.98071         5.79882
     2017.67282       196.88535         5.96252
     2017.67556       197.03099         5.92566
     2017.67830       203.56663         5.99721
     2017.68104       201.07328         5.85628
     2017.68377       202.11392         6.24763
     2017.68651       201.39456         6.22053
     2017.68925       202.47120         6.17283
     2017.69199       199.30284         5.89097
     2017.69472       197.63048         7.01084
     2017.69748       205.51913         6.11212
     2017.70020       196.84877         5.95493
     2017.70294       201.86841         6.02865
     2017.70568       192.82905         6.10453
     2017.70841       199.03769         5.86061
     2017.71115       199.80734         5.96469
     2017.71389       209.68698         6.18151
     2017.71663       205.64062         5.84977
     2017.71937       197.19726         5.78039
     2017.72210       196.15190         5.82159
     2017.72484       199.15254         6.08502
     2017.72758       195.82919         6.92845
     2017.73020       199.54680        10.14712
     2017.73312       197.16448         6.55118
     2017.73579       193.84211         5.80316
     2017.73853       195.17875         6.36580
     2017.74138       193.59242         7.32631
     2017.74401       199.44304         6.17500
     2017.74669       201.47966         6.16850
     2017.74971       192.80137        21.93339
     2017.75234       177.26899        39.52282
     2017.76431       205.83580        13.74740
     2017.76591       199.59417         6.01781
     2017.76865       200.81681         5.80966
     2017.77138       193.31545         5.79990
     2017.77412       202.45910         6.01455
     2017.77686       201.22274         5.78039
     2017.77960       195.66938         5.92457
     2017.78234       191.29902         5.77714
     2017.78507       196.60466         5.94192
     2017.78781       194.67330         5.83026
     2017.79055       194.08295         5.81508
     2017.79329       205.21159         5.88663
     2017.79603       203.79723         5.85194
     2017.79871       208.85886         7.18646
     2017.80151       209.56551         7.99519
     2017.80424       199.04815         5.83568
     2017.80698       205.66180         6.96964
     2017.80971       191.64444         6.07743
     2017.81245       188.35708         5.78147
     2017.81519       196.53172         6.04708
     2017.81793       192.02236         5.85411
     2017.82067       187.12000         6.02106
     2017.82340       192.55165         5.97444
     2017.82512       193.43905        11.56945
     2017.82998       192.15219        13.27473
     2017.83162       195.75957         6.11646
     2017.83436       194.48121         5.97986
     2017.83709       193.96786         6.39724
     2017.83983       196.10250         8.58494
     2017.84257       193.74614         5.74353
     2017.84531       191.80878         5.79015
     2017.84804       185.63042         5.83893
     2017.85078       194.36506         5.82917
     2017.85352       197.06271         5.81617
     2017.85626       195.70535         6.00913
     2017.85900       195.78399         6.06442
     2017.86173       197.22163         6.21511
     2017.86447       193.31827         6.13489
     2017.86647       204.62074         9.09555
     2017.87097       204.78580        11.69196
     2017.87269       199.53420         6.13489
     2017.87542       198.45184         5.82375
     2017.87816       198.38748         5.97770
     2017.88090       194.75712         5.78906
     2017.88364       200.50277         6.02106
     2017.88637       204.56641         5.97770
     2017.88911       199.65305         5.98637
     2017.89185       207.00369         6.03298
     2017.89459       198.20833         6.15332
     2017.89733       208.90097         6.67260
     2017.90006       194.07962         6.02214
     2017.90280       193.85526         6.14681
     2017.90554       209.45590         9.22564
     2017.90828       199.93054         6.12947
     2017.91102       196.23218         6.10020
     2017.91375       191.71782         5.99396
     2017.91649       196.02247         5.83351
     2017.91923       203.19711         5.87471
     2017.92197       194.94175         5.88338
     2017.92470       186.83239         5.87796
     2017.92745       185.07303         6.33870
     2017.93018       183.71267         5.99613
     2017.93292       185.06532         6.23571
     2017.93566       187.37196         5.82917
     2017.93839       193.86160         5.79557
     2017.94113       192.44124         5.92024
     2017.94387       191.66888         5.89205
     2017.94661       202.23253         6.12296
     2017.94935       194.42217         5.83134
     2017.95208       191.20381         5.88338
     2017.95482       198.43145         5.90289
     2017.95756       194.58009         5.82484
     2017.96030       198.81573         5.85736
     2017.96303       195.04338         5.85302
     2017.96577       201.84002         7.12684
     2017.96851       196.91866         5.77822
     2017.97125       189.75630         5.77280
     2017.97399       190.10694         5.81400
     2017.97672       192.73158         5.77714
     2017.97946       193.65523         5.71209
     2017.98220       184.57187         5.80858
     2017.98494       190.20251         5.71968
     2017.98767       185.48015         5.79774
     2017.99043       191.27380         5.77822
     2017.99316       193.44344         5.77605
     2017.99589       195.87808         5.88446
     2017.99766       193.25949        10.72820
     2018.00457       178.13311         7.07914
     2018.00684       182.83864         5.84218
     2018.00958       189.68329         6.03082
     2018.01232       190.13593         6.01130
     2018.01505       192.19257         5.82267
     2018.01779       198.55821         5.86712
     2018.02051       193.53485         6.05141
     2018.02327       203.15849         5.83026
     2018.02600       195.26314         5.87579
     2018.02874       194.53278         5.79774
     2018.03148       193.33142         5.81725
     2018.03422       191.32406         5.94734
     2018.03696       187.88670         5.84652
     2018.03969       185.07734         5.85736
     2018.04243       191.23999         5.91915
     2018.04517       185.68763         5.83460
     2018.04791       189.75427         6.28124
     2018.05065       188.98491         5.76955
     2018.05338       197.40355         5.96252
     2018.05612       191.68519         6.06659
     2018.05886       195.99284         5.87904
     2018.06160       195.18448         5.89205
     2018.06433       196.58812         6.81245
     2018.06707       195.01876         6.08285
     2018.06981       190.23440         5.95927
     2018.07255       190.77105         5.96252
     2018.07529       187.19369         6.01347
     2018.07802       190.54633         5.94842
     2018.08076       190.98097         6.65092
     2018.08350       189.52261         5.89530
     2018.08624       188.56025         5.88013
     2018.08898       194.66090         6.03190
     2018.09171       186.70754         6.11321
     2018.09445       193.04818         5.97878
     2018.09719       193.24882         9.55846
     2018.09993       186.01846         5.92783
     2018.10266       183.44110         5.94409
     2018.10540       186.48675         6.20427
     2018.10814       188.15739         5.93650
     2018.11088       186.62103         5.86712
     2018.11362       188.75667         5.84435
     2018.11635       186.19531         5.95493
     2018.11909       182.76096         5.95168
     2018.12183       187.98160         6.06984
     2018.12457       191.08124         5.96902
     2018.12731       186.30588         5.91373
     2018.13004       195.31752         6.01672
     2018.13278       197.76816         6.07743
     2018.13552       194.05381         5.84002
     2018.13826       190.82245         5.92241
     2018.14099       186.61009         5.96143
     2018.14373       184.49173         5.87362
     2018.14647       189.42037         6.24113
     2018.14921       190.90801         5.98312
     2018.15195       197.00566         5.93975
     2018.15468       192.44130         6.01130
     2018.15742       197.03694         5.94626
     2018.16016       195.71358         5.90506
     2018.16290       188.24222         6.00046
     2018.16564       191.59886         6.05683
     2018.16837       186.19251         5.86495
     2018.17111       184.41515         5.84435
     2018.17385       188.15179         6.00046
     2018.17659       185.56443         5.85302
     2018.17932       187.43007         5.83568
     2018.18206       198.81972         6.00263
     2018.18480       194.43636         6.08285
     2018.18754       187.98700         5.86603
     2018.19028       185.87664         5.86170
     2018.19301       187.71728         5.81617
     2018.19575       190.45592         6.12730
     2018.19849       193.16157         5.98854
     2018.20123       191.54921         6.04925
     2018.20397       197.13785         5.90181
     2018.20670       196.12749         5.85519
     2018.20944       192.49113         5.96469
     2018.21218       183.36677         5.85845
     2018.21492       175.75942         5.89422
     2018.21765       189.32106         5.81074
     2018.22039       193.90570         5.82917
     2018.22313       194.04334         5.77172
     2018.22587       186.35598         6.30509
     2018.22861       181.33562         5.84760
     2018.23134       188.66627         5.75112
     2018.23408       192.49491         5.86170
     2018.23682       186.66855         5.79774
     2018.23956       191.44519         5.81074
     2018.24230       187.24283         7.63744
     2018.24503       186.86948         5.78364
     2018.24777       196.32612         5.83785
     2018.25051       191.30276         5.75654
     2018.25325       190.99840         5.84218
     2018.25598       189.25804         5.78581
     2018.25872       187.60468         5.94734
     2018.26146       192.59733         5.99179
     2018.26420       189.97697         5.82592
     2018.26694       186.57161         5.74462
     2018.26967       189.23625         5.84760
     2018.27161       189.11071         9.66036
     2018.31443       179.58074        10.43441
     2018.31622       188.38616         5.74353
     2018.31895       197.81680         5.94084
     2018.32169       192.70444         5.84652
     2018.32443       191.89109         5.76847
     2018.32717       186.46473         5.82375
     2018.32991       189.89137         6.03949
     2018.33264       193.02801         5.73811
     2018.33538       186.52365         5.97011
     2018.33692       191.37801        19.76954
     2018.34095       187.08196         5.89964
     2018.34360       190.84558         5.82701
     2018.34633       189.83422         5.76196
     2018.34907       190.35086         5.72510
     2018.35181       202.69650         5.97878
     2018.35455       193.09315         5.85953
     2018.35728       193.47479         5.90831
     2018.36002       193.92143         6.12296
     2018.36276       196.24207         6.36472
     2018.36550       190.15871         5.91048
     2018.36824       195.66036         6.32461
     2018.37097       196.02100         5.79774
     2018.37371       194.98664         5.74353
     2018.37645       188.91428         5.90398
     2018.37919       199.07092         5.72835
     2018.38193       190.89256         5.76196
     2018.38466       196.85620         5.71643
     2018.38740       192.90085         5.69475
     2018.39014       197.82249         5.79557
     2018.39288       200.04213         5.97878
     2018.39561       190.58077         5.98203
     2018.39836       195.81441         5.93108
     2018.40109       192.81205         6.23788
     2018.40383       188.06770         8.98172
     2018.40657       201.35334         5.93650
     2018.40930       204.90798         5.92891
     2018.41204       197.11562         6.58370
     2018.41478       194.54326         6.06225
     2018.41752       195.78791         7.02493
     2018.42026       198.12155         6.04274
     2018.42299       194.62919         5.82917
     2018.42573       198.32583         5.76088
     2018.42847       199.05047         5.80749
     2018.43121       201.45011         5.81725
     2018.43394       198.66876         5.82917
     2018.43668       197.34240         5.78581
     2018.43942       205.29604         5.86712
     2018.44216       189.97568         5.74028
     2018.44490       191.90032         5.73161
     2018.44763       211.51496         5.97553
     2018.45037       195.83561         5.84327
     2018.45311       195.54225         5.74462
     2018.45585       202.08589         5.81617
     2018.45859       197.89353         5.77605
     2018.46132       190.91917         5.77280
     2018.46406       203.52681         5.88121
     2018.46680       203.24346         5.80858
     2018.46954       198.95410         5.82592
     2018.47227       195.21974         5.89205
     2018.47501       199.17138         5.74245
     2018.47775       197.69802         5.83785
     2018.48049       206.29067         5.97227
     2018.48323       196.11331         5.77172
     2018.48596       191.36995         5.77063
     2018.48870       196.24859         5.77280
     2018.49144       196.34023         5.75112
     2018.49418       198.89887         5.89205
     2018.49692       199.11152         5.90181
     2018.49965       193.69316         5.70125
     2018.50239       195.05380         5.81074
     2018.50513       189.60844         5.80858
     2018.50787       194.40008         5.81074
     2018.51060       199.26472         5.97878
     2018.51334       191.50737         5.74895
     2018.51608       195.18601         5.76088
     2018.51882       190.32865         5.81400
     2018.52156       195.59529         5.81074
     2018.52429       194.01693         5.82267
     2018.52703       191.81958         6.06984
     2018.52977       197.04122         5.88013
     2018.53251       193.52886         5.74353
     2018.53525       199.64450         5.78039
     2018.53798       203.40714         8.84729
     2018.54072       202.22678         5.74895
     2018.54346       196.90143         6.22162
     2018.54620       202.47507         5.84544
     2018.54893       193.75071         5.75871
     2018.55167       190.23435         5.72293
     2018.55441       194.79699         5.67090
     2018.55715       197.31063         5.75654
     2018.55989       192.22328         5.94951
     2018.56262       200.20792         5.91807
     2018.56536       191.85656         5.83134
     2018.56810       195.94220         5.78798
     2018.57084       191.28084         5.72727
     2018.57357       198.04148         5.83351
     2018.57631       194.38613         6.07201
     2018.57905       191.86777         6.03298
     2018.58179       193.39041         5.93650
     2018.58453       192.40305         5.91482
     2018.58726       193.63269         5.72402
     2018.59000       196.63134         5.74136
     2018.59274       195.23598         5.78256
     2018.59548       203.14162         5.86170
     2018.59822       198.75626         5.74353
     2018.60095       195.52890         5.78364
     2018.60369       201.80954         5.79015
     2018.60643       199.37819         5.79557
     2018.60917       199.13083         5.77605
     2018.61190       199.98747         5.72185
     2018.61464       198.00011         5.76955
     2018.61738       198.45175         5.92674
     2018.62012       203.04339         5.93758
     2018.62286       203.35604         6.23679
     2018.62559       194.72468         6.05900
     2018.62833       188.98932         5.75112
     2018.63107       193.59296         5.81291
     2018.63381       197.46760         5.93542
     2018.63655       198.30924         5.71643
     2018.63928       202.41989         6.04708
     2018.64202       212.74553         6.28449
     2018.64476       200.28217         5.90072
     2018.64750       191.06481         5.76955
     2018.65023       198.29745         5.90723
     2018.65297       198.16210         5.73052
     2018.65571       199.95374         5.89097
     2018.65845       202.18638         5.91915
     2018.66119       207.72602         5.97227
     2018.66392       196.58466         5.81617
     2018.66666       201.27530         5.79448
     2018.66940       191.02895         5.75762
     2018.67214       203.41959         5.84327
     2018.67488       193.28223         6.81136
     2018.67761       196.05787         5.88121
     2018.68035       200.81751         5.97878
     2018.68309       195.38515         5.97878
     2018.68583       202.54480         5.93216
     2018.68856       203.36144         5.87254
     2018.69130       211.43408         5.98528
     2018.69404       204.14672         6.16524
     2018.69678       199.54036         6.40808
     2018.69952       197.62101         5.77389
     2018.70225       198.62365         5.96685
     2018.70499       192.94529         5.73919
     2018.70773       203.00693         5.88121
     2018.71047       189.64957         5.86170
     2018.71321       195.58221         6.00697
     2018.71594       195.55886         5.82375
     2018.71868       189.02650         5.79557
     2018.72142       202.09714         5.90289
     2018.72416       192.78378         5.96902
     2018.72689       196.39742         5.83568
     2018.72963       192.77006         5.84327
     2018.73237       192.73871         5.93325
     2018.73511       188.71535         5.80966
     2018.73785       188.13999         9.66145
     2018.74058       188.60963         7.42388
     2018.74332       198.51827         5.81508
     2018.74606       195.56691         6.28666
     2018.74880       192.02456         5.75329
     2018.75154       193.46920         6.05141
     2018.75427       195.55184         5.76088
     2018.75668       187.29040         6.94471
     2018.76077       193.19936        10.74337
     2018.76249       196.05777         5.92457
     2018.76522       189.10541         6.00155
     2018.76796       197.79005         5.88555
     2018.77070       204.52569         6.06334
     2018.77344       195.76833         7.48675
     2018.77618       192.93197         5.94409
     2018.77891       197.45062         5.95059
     2018.78165       190.86926         5.98745
     2018.78439       190.38990         6.19343
     2018.78713       194.19254         6.03732
     2018.78987       187.72018         5.96577
     2018.79260       190.94382         5.89530
     2018.79534       199.30447         5.84977
     2018.79812       187.68312         6.10453
     2018.80082       197.87375         5.86820
     2018.80355       194.52539         5.79774
     2018.80629       198.86403         6.11971
     2018.80903       193.99167         6.04599
     2018.81145       199.80324         7.28837
     2018.81506       193.26709        12.58308
     2018.81727       205.36561         6.13272
     2018.81998       195.26924         5.88880
     2018.82272       202.52788         5.99070
     2018.82546       200.53453         5.97119
     2018.82820       194.95117         5.94409
     2018.83093       195.40481         5.81617
     2018.83367       192.57745         5.83243
     2018.83641       209.24209         5.99070
     2018.83915       200.03273         6.02865
     2018.84188       202.24938         6.07743
     2018.84462       201.79002         5.89747
     2018.84736       192.36566         5.76738
     2018.85010       194.51030         5.71751
     2018.85284       192.42694         5.87037
     2018.85557       186.97858         5.97770
     2018.85831       192.73323         5.80749
     2018.86105       192.18787         5.84327
     2018.86379       190.61251         5.92783
     2018.86653       195.35015         5.96577
     2018.86926       187.29079         5.86495
     2018.87200       190.07343         5.77822
     2018.87474       198.75708         5.90181
     2018.87748       192.23672         5.90072
     2018.88021       190.28536         5.94842
     2018.88295       191.59900         5.85411
     2018.88569       190.21664         5.87579
     2018.88843       200.69029         5.92566
     2018.89117       197.20993         5.96035
     2018.89390       198.57357         5.95276
     2018.89664       191.48521         6.01672
     2018.89938       193.97485         5.97986
     2018.90212       197.41249         5.92349
     2018.90485       208.26214         6.17392
     2018.90759       207.24878         6.07093
     2018.91033       199.30842         6.00371
     2018.91307       203.28706         7.81090
     2018.91581       197.88470         6.02431
     2018.91854       198.16134         5.78039
     2018.92128       192.15399         5.93325
     2018.92402       194.63863         5.90398
     2018.92676       199.28127         5.95276
     2018.92950       200.79891         6.04274
     2018.93223       196.59655         6.00805
     2018.93497       192.76020         5.92241
     2018.93771       191.27784         6.12296
     2018.94045       200.24048         5.92132
     2018.94318       202.22112         5.86278
     2018.94592       194.31776         5.85628
     2018.94866       202.55140         5.89964
     2018.95140       212.34405         6.15223
     2018.95414       209.72869         5.94842
     2018.95687       199.81533         5.87796
     2018.95961       203.80697         5.89530
     2018.96235       202.70861         5.88013
     2018.96509       207.08725         6.00371
     2018.96765       197.10186         6.54576
     2018.97091       193.55562         6.84497
     2018.97330       193.24018         6.02865
     2018.97604       198.59482         5.93216
     2018.97878       195.34946         5.88555
     2018.98151       185.51810         7.55397
     2018.98425       195.90675         6.07852
     2018.98699       185.92339         5.84435
     2018.98973       190.64903         5.80099
     2018.99247       199.78167         5.98203
     2018.99520       193.50131         5.96685
     2018.99794       186.70196         5.95927
     2019.00068       184.57260         5.92457
     2019.00342       186.90424         5.88013
     2019.00616       195.79488         5.81942
     2019.00889       190.43352         6.05467
     2019.01163       191.07916         5.90072
     2019.01437       200.47181         6.11754
     2019.01711       198.99045         5.84869
     2019.01984       189.58509         5.84327
     2019.02258       189.42073         5.80532
     2019.02532       190.37237         6.13272
     2019.02806       190.13701         6.05683
     2019.03005       184.35848         9.12157
     2019.03901       188.51158         5.75220
     2019.04061       191.75396        13.96313
     2019.04819       192.99973        11.55428
     2019.04945       193.75103         7.76645
     2019.05914       186.84430        11.84156
     2019.06091       196.55272         6.04816
     2019.06365       192.37536         5.90506
     2019.06639       193.94900         5.98745
     2019.06913       192.48964         5.98312
     2019.07186       184.37428         5.97444
     2019.07460       184.50792         5.80749
     2019.07734       190.10357         5.81833
     2019.08008       190.46221         5.85736
     2019.08282       189.74085         6.08936
     2019.08555       197.90849         5.81183
     2019.08829       195.03113         5.85302
     2019.09103       198.31477         5.82701
     2019.09377       195.28442         5.70884
     2019.09650       199.29806         5.80207
     2019.09924       195.65970         5.83243
     2019.10198       188.37834         5.80641
     2019.10472       189.12998         5.82592
     2019.10746       190.99263         5.81291
     2019.11019       193.28027         5.79448
     2019.11293       194.23891         5.86278
     2019.11567       174.97455         5.97986
     2019.12115       207.61383         5.91157
     2019.12388       208.52448         6.26064
     2019.12662       195.84812         5.84869
     2019.12936       193.87276         5.74136
     2019.13210       194.21540         5.84002
     2019.13483       191.01204         5.85519
     2019.13757       194.15068         5.94951
     2019.14031       195.93233         5.91157
     2019.14305       199.97797         6.21836
     2019.14579       189.41161         5.98528
     2019.14852       197.41425         5.98095
     2019.15126       197.31089         5.96143
     2019.15400       194.17553         6.05250
     2019.15674       196.52518         6.13923
     2019.15948       190.70582         5.94300
     2019.16221       184.60946         6.02323
     2019.16495       191.87610         5.80749
     2019.16769       188.39374         5.81833
     2019.17043       186.38139         5.76196
     2019.17316       191.45503         6.01564
     2019.17590       195.90167         6.08936
     2019.17864       191.01931         5.86170
     2019.18138       190.57395         5.82375
     2019.18412       184.64559         5.76847
     2019.18685       191.75124         5.95493
     2019.18959       194.21188         5.86495
     2019.19233       192.57052         5.84002
     2019.19507       186.15616         5.73052
     2019.19780       186.61680         5.84110
     2019.20054       189.12444         5.91699
     2019.20328       182.29109         5.79340
     2019.20602       181.80473         5.79882
     2019.20876       180.01037         5.79340
     2019.21149       179.89801         5.76196
     2019.21423       188.93465         5.77605
     2019.21697       190.94629         5.80532
     2019.21971       191.17094         6.10020
     2019.22245       193.83658         5.90940
     2019.22518       187.89122         6.03298
     2019.22792       194.07686         6.27582
     2019.23066       188.11850         6.18693
     2019.23340       193.53115         6.19885
     2019.23613       189.89479         6.01998
     2019.23887       188.47643         6.09369
     2019.24161       186.27707         6.18584
     2019.24435       184.93871         6.06551
     2019.24709       186.75235         5.98203
     2019.24982       191.11300         6.71380
     2019.25256       196.36264         7.04986
     2019.25530       189.49028         6.51324
     2019.25804       197.73692         5.98745
     2019.26078       196.16656         6.00697
     2019.26351       193.76420         6.20102
     2019.26625       192.68885         6.05141
     2019.26899       193.22649         6.07418
     2019.27173       195.37313         6.59021
     2019.27446       191.89277         6.00480
     2019.27720       192.05341         6.04383
     2019.27994       196.65805         5.88988
     2019.28268       191.90570         5.87904
     2019.28542       198.02934         6.02431
     2019.28815       198.83998         5.80316
     2019.29089       194.87562         5.93650
     2019.29363       197.46126         5.88772
     2019.29637       195.87591         5.88230
     2019.29911       199.40255         5.85953
     2019.30184       191.92219         5.82159
     2019.30458       186.01783         5.86929
     2019.30732       190.50347         5.82592
     2019.31006       195.65111         5.80532
     2019.31279       189.48376         5.82809
     2019.31553       200.58940         5.79665
     2019.31827       199.37804         5.90398
     2019.32101       192.13068         5.78364
     2019.32375       185.00832         5.78581
     2019.32648       188.17096        16.31887
     2019.32922       189.76761         5.69800
     2019.33196       194.28625         5.86495
     2019.33470       196.22489         5.89097
     2019.33744       192.12553         5.78364
     2019.34017       193.08117         5.76196
     2019.34291       193.22382         5.80966
     2019.34565       190.73546         5.98312
     2019.34839       187.91210         5.98637
     2019.35112       186.63374         6.34520
     2019.35386       191.83938         5.84869
     2019.35660       194.09102         6.60430
     2019.35934       192.98267         5.77280
     2019.36208       192.09831         5.79665
     2019.36481       190.45295         5.94084
     2019.36755       190.25759         5.88988
     2019.37029       191.46923         5.81942
     2019.37303       200.26887         5.80424
     2019.37577       196.96752         5.91482
     2019.37850       196.16916         5.77063
     2019.38124       201.28280         5.95059
     2019.38398       203.15944         6.09153
     2019.38672       193.42608         7.71767
     2019.38945       193.30172         5.77280
     2019.39219       197.78037         5.88230
     2019.39493       197.57801         6.29100
     2019.39767       194.46765         5.78364
     2019.40041       194.22429         5.75329
     2019.40314       196.43893         5.76955
     2019.40588       197.19358         5.75871
     2019.40862       197.19022         5.81400
     2019.41136       195.78286         5.81074
     2019.41410       198.31250         5.79990
     2019.41683       199.31214         5.94300
     2019.41957       209.24978         5.93650
     2019.42231       193.01343         5.82484
     2019.42505       202.12707         5.93650
     2019.42778       203.44971         6.05141
     2019.43052       200.75635         5.95276
     2019.43326       194.10899         5.78581
     2019.43600       195.74563         5.80749
     2019.43874       191.49128         6.13597
     2019.44147       192.75392         6.05683
     2019.44421       199.90756         5.97878
     2019.44695       190.16620         5.98528
     2019.44969       197.79684         5.95168
     2019.45243       195.23048         5.89964
     2019.45516       195.58413         5.89530
     2019.45790       197.25477         6.14356
     2019.46064       204.75541         6.17934
     2019.46338       200.86005         6.26281
     2019.46611       199.92169         6.38315
     2019.46885       206.50934         6.22162
     2019.47159       197.19798         5.93650
     2019.47433       202.20262         5.95059
     2019.47707       198.68226         5.92891
     2019.47980       199.64790         5.93216
     2019.48254       194.09754         5.94734
     2019.48528       201.99619         5.98095
     2019.48802       193.78183         5.89747
     2019.49076       192.23447         5.76630
     2019.49349       193.62811         5.77497
     2019.49623       191.61475         5.80099
     2019.49897       195.51839         5.88338
     2019.50171       197.35404         5.73377
     2019.50444       189.49768         5.85519
     2019.50718       193.51032         5.96035
     2019.50992       190.90896         5.80858
     2019.51266       194.49960         5.78256
     2019.51540       198.08524         5.76304
     2019.51813       193.88589         5.84435
     2019.52087       198.15453         5.93216
     2019.52361       192.19217         6.21836
     2019.52635       188.32281         5.79232
     2019.52908       198.83045         6.01998
     2019.53182       188.66910         6.04166
     2019.53456       187.94774         5.99287
     2019.53730       198.12738         6.11754
     2019.54004       211.40302         8.82236
     2019.54277       200.67366         6.06117
     2019.54551       195.04630         6.03190
     2019.54825       194.42795         5.84002
     2019.55099       196.36759         5.89639
     2019.55373       203.85523         6.02865
     2019.55646       200.63287         5.95168
     2019.55920       195.97451         6.22704
     2019.56194       192.23015         5.83243
     2019.56468       196.53480         5.95385
     2019.56741       203.91544         6.06876
     2019.57015       190.56208         5.74136
     2019.57289       194.62972         6.10562
     2019.57563       198.17536         5.88013
     2019.57837       196.31901         5.87579
     2019.58110       194.28465         5.76088
     2019.58384       211.45729         6.25522
     2019.58658       192.92893         5.75654
     2019.58932       197.28657         5.74570
     2019.59206       196.32921         5.88338
     2019.59479       195.45386         5.77931
     2019.59753       195.04550         5.97661
     2019.60027       201.33214         5.97444
     2019.60301       194.65978         5.78473
     2019.60574       198.60242         6.04599
     2019.60848       192.23606         6.07418
     2019.61122       188.93171         5.83243
     2019.61396       196.50235         6.01022
     2019.61670       195.94699         5.86603
     2019.61943       200.85063         5.77497
     2019.62217       205.54727         6.01781
     2019.62491       201.01291         5.75437
     2019.62765       201.80156         6.35713
     2019.62925       217.16693        14.24391
     2019.63435       222.06813        18.79494
     2019.63586       219.92448         6.48505
     2019.63860       197.93312         5.85736
     2019.64134       204.55777         6.09803
     2019.64407       202.70241         5.93542
     2019.64681       193.18105         5.82809
     2019.64955       194.23869         5.87254
     2019.65229       198.52933         5.89964
     2019.65503       197.45997         5.90181
     2019.65776       193.04762         6.00046
     2019.66050       200.38226         5.97878
     2019.66324       197.27690         5.94300
     2019.66598       192.44954         5.82592
     2019.66872       195.98018         5.77172
     2019.67145       195.40282         5.89422
     2019.67419       192.61847         5.91482
     2019.67693       195.45211         6.03407
     2019.67967       193.31775         5.97770
     2019.68240       192.42539         5.80749
     2019.68514       200.87803         5.86387
     2019.68788       203.18367         5.93542
     2019.69062       194.44632         5.98962
     2019.69336       190.23196         5.95059
     2019.69609       197.20160         5.87579
     2019.69883       210.20324         6.16633
     2019.70157       198.79788         5.87145
     2019.70431       210.00653         6.14356
     2019.70705       192.70917         5.82592
     2019.70978       199.44981         5.97553
     2019.71252       193.56445         5.85519
     2019.71526       194.28909         5.76847
     2019.71800       192.37973         6.01564
     2019.72073       196.58838         6.17934
     2019.72347       197.27202         6.16741
     2019.72621       195.69766         6.10345
     2019.72895       200.63130         5.93758
     2019.73169       205.43194         5.99179
     2019.73442       199.41258         6.03190
     2019.73716       206.20223         6.00371
     2019.73990       199.71087         6.06334
     2019.74264       197.59351         5.86387
     2019.74538       196.36315         5.74570
     2019.74811       196.55979         5.95168
     2019.75085       200.15344         6.07093
     2019.75359       206.86408         6.32677
     2019.75633       200.15672         5.94734
     2019.75906       199.49936         5.99721
     2019.76180       195.70400         5.87687
     2019.76454       206.45164         6.07093
     2019.76728       194.72629         5.99179
     2019.77002       198.12493         5.98637
     2019.77275       197.21857         6.06009
     2019.77549       197.09021         5.94951
     2019.77823       195.97685         5.94951
     2019.78097       201.25349         5.97661
     2019.78371       200.11014         5.95710
     2019.78644       201.83578         6.08068
     2019.78895       210.55137         6.93061
     2019.79283       218.60327        10.57642
     2019.79466       209.54570         6.11754
     2019.79739       201.91834         5.95818
     2019.80013       206.39799         6.07310
     2019.80287       198.51063         5.96685
     2019.80561       214.01027         6.39941
     2019.80835       191.94891         6.49914
     2019.81108       198.90555         6.01672
     2019.81382       205.23420         6.25414
     2019.81656       193.23784         5.96360
     2019.81930       193.01748         5.89639
     2019.82203       187.46912         5.87254
     2019.82477       192.53176         5.95385
     2019.82751       195.32640         6.00588
     2019.83025       203.08505         7.50193
     2019.83299       195.49069         6.07201
     2019.83572       200.87333         5.99721
     2019.83846       205.09697         5.96035
     2019.84120       200.19761         5.93108
     2019.84394       200.29125         6.03840
     2019.84668       194.29390         5.96252
     2019.84941       195.75354         5.92891
     2019.85215       196.95518         5.89422
     2019.85489       203.31782         6.12622
     2019.85763       200.22446         5.93650
     2019.86036       198.40910         5.99396
     2019.86310       202.67875         6.11212
     2019.86584       206.70039         6.06659
     2019.86858       200.84203         6.19668
     2019.87132       211.21567         6.31268
     2019.87405       203.00431         5.93975
     2019.87679       206.22695         6.22162
     2019.87953       205.02760         6.05250
     2019.88227       212.77324         6.06768
     2019.88501       205.59588         6.35062
     2019.88774       195.89652         6.44060
     2019.89048       201.30216         5.90289
     2019.89322       204.53181         5.92024
     2019.89596       200.67745         6.12947
     2019.89869       198.30509         5.95385
     2019.90143       200.66273         5.93542
     2019.90417       200.28837         5.91699
     2019.90691       199.24501         6.22595
     2019.90965       200.13166         6.11321
     2019.91238       201.99530         5.93867
     2019.91512       203.25394         5.97336
     2019.91786       202.51858         5.90289
     2019.92060       203.10022         6.00046
     2019.92607       201.41051         5.95168
     2019.92877       200.77014         5.99721
     2019.93155       205.35579         6.01455
     2019.93429       200.66043         5.89856
     2019.93702       195.64207         5.92674
     2019.93976       195.59472         6.10779
     2019.94250       200.06136         6.09369
     2019.94524       200.42400         6.17500
     2019.94798       192.97764         5.90615
     2019.95071       194.91028         6.23246
     2019.95345       203.43992         6.47963
     2019.95619       199.20457         6.05792
     2019.95893       196.29921         5.99721
     2019.96167       197.41185         5.88663
     2019.96440       201.11049         6.20861
     2019.96714       202.90913         6.12730
     2019.96988       199.30777         5.99829
     2019.97262       194.39842         5.88988
     2019.97535       194.15906         5.89964
     2019.97809       188.13870         5.85736
     2019.98083       194.49834         5.98528
     2019.98357       191.17298         5.90615
     2019.98631       195.44663         5.94300
     2019.98904       194.61227         5.80316
     2019.99178       202.22791         5.88772
     2019.99452       200.98355         5.95059
     2019.99726       210.38519         5.99179
     2020.03011       200.16489         5.88880
     2020.03285       177.57953         5.81833
     2020.03559       189.37618         5.74895
     2020.03833       185.38482         5.78689
     2020.04106       192.54546         6.05900
     2020.04380       186.65010         5.88988
     2020.04654       194.01174         5.83134
     2020.04928       192.23739         5.82484
     2020.05201       196.61303         5.92566
     2020.05475       191.13967         5.82701
     2020.05749       198.44231         5.86387
     2020.06023       200.21295         5.89856
     2020.06297       207.46059         6.02973
     2020.06519       197.89012         7.57023
     2020.07218       198.34175        10.73687
     2020.07392       197.81816         5.83460
     2020.07666       202.49880         5.90940
     2020.07939       191.04644         5.89639
     2020.08213       199.55009         5.89747
     2020.08487       195.88673         5.88772
     2020.09581       202.90729         5.92674
     2020.09856       200.89794         6.10995
     2020.10130       201.01858         5.99287
     2020.10403       199.14222         5.93975
     2020.10677       187.41786         5.93758
     2020.10951       190.79950         5.76630
     2020.11225       195.39215         5.80749
     2020.11498       191.10479         5.81508
     2020.11772       199.76543         6.15766
     2020.12046       193.84007         5.95601
     2020.12320       196.85971         5.77389
     2020.12594       189.67635         5.83026
     2020.12867       184.82800         5.81508
     2020.13141       184.50864         5.84002
     2020.13415       188.61528         5.91048
     2020.13689       188.85992         5.92024
     2020.13963       187.72956         5.86929
     2020.14236       194.13320         5.92349
     2020.14510       202.93085         5.90831
     2020.14784       193.89349         5.94951
     2020.15058       192.19713         5.82701
     2020.15331       193.69677         5.84002
     2020.15605       191.42241         5.81942
     2020.15879       194.24306         5.97444
     2020.16153       198.84770         5.89530
     2020.16427       192.26034         5.81183
     2020.68913       217.81936        24.33683
     2020.70166       206.50430         8.80176
     2020.70362       200.43976         6.25306
     2020.70636       202.64540         6.37881
     2020.70910       197.45505         6.57937
     2020.71092       207.75747        10.63171
     2020.94304       213.79788        20.56527
     2020.94421       195.79916         6.93929
     2021.46216       200.40956         6.36905
     2021.46475       197.29817         5.88663
     2021.46625       193.40452        18.64750
     2021.47035       195.58548         6.36580
     2021.47296       206.05209         7.07155
     2021.47570       200.83073         6.78968
     2021.47781       196.02723         8.06024
     2021.48319       199.32549        10.14495
     2021.48766       200.66254        11.21929
     2021.48939       201.65694         6.00913
     2021.49195       199.15154         6.71488
     2021.51156       194.14414         6.79402
     2021.51389       199.73769         7.26343
     2021.51572       172.33512        59.23491
     2021.51908       194.54790         7.53337
     2021.52277       194.17577         7.57457
     2021.52498       197.11629         5.92349
     2021.52772       197.71493         6.03624
     2021.52959       207.19137        10.04413
     2021.53323       195.48122         6.61189
     2021.53593       195.13885         6.11754
     2021.53849       210.70145         6.93278
     2021.54091       201.96802         7.82824
     2021.54938       196.17900         8.25429
     2021.55867       248.98118       140.73386
     2021.56586       194.85687         7.65479
     2021.56982       200.59380        11.52175
     2021.57152       199.33720         6.02973
     2021.57426       194.58984         5.98095
     2021.57700       196.82948         6.28449
     2021.57974       200.83012         6.07635
     2021.58247       201.57076         6.09586
     2021.58521       192.05540         6.06009
     2021.58795       193.76005         6.05792
     2021.59069       199.80669         6.10562
     2021.59342       198.08033         6.07201
     2021.59611       204.86596         9.33297
     2021.59908       207.33066        10.87997
     2021.60438       193.41990         6.54468
     2021.60671       194.78744         7.30571
     2021.61361       197.76006        11.31252
     2021.61533       197.39746         6.38748
     2021.61727       200.58892         9.66904
     2021.62019       180.65660        13.18150
     2021.62559       190.56687        15.64240
     2021.64014       169.90028       120.61198
     2021.64367       198.59511        10.90816
     2021.64544       196.50952         7.86836
     2021.64818       197.62116         6.03949
     2021.65023       198.37465         8.78658
     2021.65373       202.25946        10.25228
     2021.65639       198.02109         6.75391
     2021.65896       200.00369         6.40374
     2021.82341       209.01124         7.64395
     2021.87361       206.62800        21.23524
     2021.87434       204.73418        13.72030
     2022.11200       201.50188        14.26993
     2022.11362       197.99926         9.18878
     2022.11635       193.40990         6.01130
     2022.11909       191.58754         6.05683
     2022.12091       208.67797        10.74446
     2022.12579       214.72211        23.64518
     2022.12731       193.67647         5.98203
     2022.13004       190.51611         6.06334
     2022.13280       191.53476         5.95385
     2022.13552       196.00639         5.98745
     2022.15670       216.35136         8.75514
     2022.16124       188.23842        13.19776
     2022.16290       210.15081         6.08502
     2022.16564       203.45145         6.13164
     2022.16837       182.57110        24.64688
     2022.17111       194.52574         6.09369
     2022.17385       195.76838         6.00480
     2022.17607       200.46290         8.56543
     2022.20675       194.31509         6.47096
     2022.20944       197.66472         6.22921
     2022.21218       212.64136         6.41133
     2022.21492       196.57701         6.35604
     2022.21765       191.74065         6.22162
     2022.22039       202.21529         6.52842
     2022.22313       201.88493         6.46337
     2022.22587       193.35257         6.36038
     2022.22861       201.21021         6.38531
     2022.23134       198.94786         6.10128
     2022.23408       203.11950         6.11754
     2022.23682       193.14314         6.28775
     2022.23956       194.16778         6.25848
     2022.24230       196.65042         6.47855
     2022.24492       201.60904         6.46229
     2022.24781       198.29972         8.63047
     2022.24950       193.84411        12.57549
     2022.25709       205.44389        18.46538
     2022.25764       201.90002        13.25088
     2022.26513       189.18078        11.47947
     2022.26602       193.65698        10.68050
     2022.31986       179.25560        12.46275
     2022.32158       191.66401         6.96747
     2022.54711       192.96687         9.99968
     2022.54893       197.50930         5.90506
     2022.55167       200.91194         5.94842
     2022.55441       201.35958         6.06225
     2022.55589       220.03393        25.70604
     2022.60739       229.28400        11.23664
     2022.60917       206.07642         6.12513
     2022.61190       204.12506         6.01455
     2022.61464       205.33970         5.87254
     2022.61635       202.06210        12.49202
     2022.66495       229.49149        13.30617
     2022.66666       208.26289         5.90072
     2022.66940       206.73554         5.87145
     2022.67214       206.68018         5.86603
     2022.67488       212.00282         6.04057
     2022.67761       208.42046         5.95276
     2022.68035       206.86610         5.86820
     2022.68201       194.09249        13.05683
     2022.72524       206.82662        14.53879
     2022.72689       211.68901         6.00371
     2022.72963       209.76965         5.85736
     2022.73237       208.31430         5.88230
     2022.73499       205.80391         6.18042
