# ================= DQRFIT RESULTS ================
# INPUT FILE: series/BCTE.rad
# OUTPUT: LDETRENDED
# FILTER FUNCTION: f(t)
# f(t)=+line(t)+annual(t)+jumps(t)
# line(t)=+P 1+P 2*t
# annual(t)=+P 3*sin(2*pi*t+P 4)
# jumps(t)=+P 5*heav(t-2012.8438  )
# heav(t)=(t<0?0:1)
# TOTAL OBSERVATIONS MTOT= 3437
# INITIAL TIME INTERVAL= 2022.7488 - 2009.1950 = 13.5538
# TOTAL OBSERVATIONS AFTER PREFILTER M= 3341
# TIME-SPAN= 2022.7488 - 2011.9124 = 10.8364
# OBSERVATIONS: USED M=  3341 REJECTED MTOT-M=    96 %USED=   97.2069
# N=  5 PARAMETERS
# MAXSIG= 175.00000
# MAXRES= 127.93888
# SCALE FACTOR FOR LENGTHS: SCL=  10.00000
# SCALE FACTOR FOR SIGMAS: SCLSIG=   1.00000
# CHI^2=   3104.219 DOF=  3336 CHI^2/DOF=   0.93052
# RMS=     14.042 SDEV=     14.022 MEAN=   -0.78188
#  P #       PARAMETER +-    SIGMA %error PARAMETER NAME
# P 1 =    -11054.49522 +-  149.643   1.35 YZERO                              
# P 2 =         5.51485 +-    0.074   1.35 SLOPE                              
# P 3 =         9.42041 +-    0.238   2.52 ANNUAL AMPLITUDE                   
# P 4 =        -3.03282 +-    0.036   1.17 ANNUAL PHASE                       
# P 5 =       -50.46526 +-    0.503   1.00 OFFSET 2012.8438                   
#       T            LDETRENDED       SIG_OBS
     2011.91238         5.53725         5.57656
     2011.91512         7.77415         5.87366
     2011.91786         5.42206         5.70775
     2011.92060         4.37996         5.66627
     2011.92334         4.32086         5.68074
     2011.92607         0.48276         5.61804
     2011.92881         9.94766         5.66723
     2011.93155         5.63956         5.62093
     2011.93429         5.58046         5.72897
     2011.93702         1.27336         5.58041
     2011.93931        -6.64422         6.91161
     2011.94598         6.28698         8.40583
     2011.94798         8.68797         5.43958
     2011.95071        22.68287         5.61128
     2011.95345         6.98777         5.64022
     2011.95619        11.19867         5.58910
     2011.95893       -34.77543         5.49842
     2011.96167       -21.55653         5.50421
     2011.96440        -7.55962         5.98074
     2011.96714       -11.69372         6.80068
     2011.96988        13.88418         5.46369
     2011.97262         3.81708         5.52061
     2011.97535        -1.11302         5.53990
     2011.97809         1.74288         5.56305
     2011.98357       -24.59832         5.80614
     2011.98631        17.52858         5.56787
     2011.98904        10.10549         5.45308
     2011.99178       -18.91561         5.88620
     2011.99452         8.54429         5.47527
     2011.99726         1.95119         5.41257
     2012.00000        -1.55491         5.46080
     2012.00273         8.71299         5.46659
     2012.00547        -2.62211         5.87752
     2012.00821       -37.17521         5.66144
     2012.01095        14.09170         5.43572
     2012.01368         4.68660         5.38942
     2012.01642         9.93450         5.51386
     2012.01916         8.48240         5.44151
     2012.02190         0.74330         5.52447
     2012.02464        -6.79680         5.45308
     2012.03559       -21.06119         5.53218
     2012.04106       -12.27239         5.50903
     2012.04380        -8.90949         5.48588
     2012.04654        -8.71259         5.71064
     2012.04928         5.35431         5.56016
     2012.05201        12.20621         5.57270
     2012.05475        13.23111         5.55437
     2012.05703        -5.69447         7.12769
     2012.07392       -22.89758         5.81289
     2012.07666        15.49232         5.80807
     2012.07939        -7.32178         5.62093
     2012.08213        10.67513         5.51289
     2012.08487        14.25703         5.38942
     2012.08761         5.73393         5.47430
     2012.09034        -7.76817         5.49070
     2012.09308        -1.03627         5.49456
     2012.09582         2.75563         5.70871
     2012.09867         2.40590         6.12254
     2012.10130        -5.34257         5.60357
     2012.10415        -1.46229         5.76852
     2012.10677        -3.02676         5.52832
     2012.11042        -2.83890         9.31452
     2012.11248        -1.77022         6.08106
     2012.11498        -0.48206         5.43668
     2012.11772        -1.31916         5.34408
     2012.12046         3.53274         5.32672
     2012.12320       -10.86836         5.39810
     2012.12594       -14.95446         5.39810
     2012.12867       -28.55655         5.65855
     2012.13141        -4.80865         5.36144
     2012.13415        -4.07075         5.51386
     2012.13689        -1.98785         5.40292
     2012.13963         4.25405         5.57077
     2012.14236        -3.04005         5.56402
     2012.14510        -3.68315         5.44633
     2012.14784        -5.58725         5.45212
     2012.15058        -2.48135         5.37302
     2012.15331        -6.82744         5.35758
     2012.15605        -5.73554         5.68942
     2012.15851        -5.25707         6.23347
     2012.16198         5.19674         7.10068
     2012.16427        -0.14584         5.47334
     2012.16700         0.81206         5.56787
     2012.16974        -6.98804         5.47430
     2012.17248       -12.59714         5.64890
     2012.17522        -4.25123         5.48009
     2012.17767        -1.62876         6.12640
     2012.20082        -8.53745        11.50328
     2012.20260         2.83278         5.63154
     2012.20533        -4.16432         5.52929
     2012.20807         3.46858         5.42511
     2012.21081        -1.54052         5.40678
     2012.21355        -4.87962         5.48106
     2012.21629         1.82228         5.53315
     2012.22176        -5.53491         5.38556
     2012.22450       -11.29401         5.37012
     2012.22724        -9.71611         5.41160
     2012.22997        -7.62721         5.36048
     2012.23271        -3.58431         5.47623
     2012.23545        -3.20841         5.44151
     2012.23819         1.85149         5.40196
     2012.24093        -0.49661         5.38942
     2012.24366         4.87429         5.49167
     2012.24640        -2.90980         5.47238
     2012.24914        -3.37390         5.43861
     2012.25188        -1.29200         5.50710
     2012.25444        -6.15016         5.91418
     2012.26009       -13.32930         5.41353
     2012.27652        -9.22889         5.44537
     2012.27926        -8.39199         5.52254
     2012.28199       -12.45509         5.46176
     2012.28473        -8.88919         5.40292
     2012.28747        -9.62029         5.39424
     2012.29021        -7.92739         5.46852
     2012.29295       -16.96848         5.42607
     2012.29568       -11.76458         5.43572
     2012.29842       -11.18768         5.29778
     2012.30116       -11.46278         5.44537
     2012.30954       -15.20102         5.93733
     2012.31211       -17.53018         5.88910
     2012.31485        -8.71728         5.53701
     2012.31759        -6.11737         5.43475
     2012.32032        -5.79047         5.56016
     2012.32306       -10.89557         5.43765
     2012.32580       -16.38167         5.35855
     2012.32854       -15.17177         5.37109
     2012.33128        -4.31987         5.43475
     2012.33401        -8.18397         5.46466
     2012.33675        -9.13707         5.33540
     2012.33949       -14.62016         5.39520
     2012.34223       -14.77126         5.37012
     2012.34496       -19.97336         5.38652
     2012.34770        -9.60546         5.50324
     2012.35044        -7.97956         5.43572
     2012.35318       -11.09366         5.42511
     2012.35592       -11.44276         5.39328
     2012.35865       -17.58786         5.39520
     2012.36766        -8.72250         8.15213
     2012.36961       -12.77025         5.47720
     2012.37234       -10.90435         5.44537
     2012.37508        -9.19445         5.39328
     2012.37782        -9.53855         5.47238
     2012.38056       -10.69465         5.36723
     2012.38329       -10.72175         5.41353
     2012.38603        -9.70684         5.35662
     2012.38877       -11.41994         5.43090
     2012.39151       -12.93604         5.46273
     2012.39425       -11.75014         5.39424
     2012.39698       -12.92224         5.53604
     2012.41070        -7.28587         5.45501
     2012.41341        -7.31483         5.42607
     2012.41695        15.17864         8.37014
     2012.41889        -6.14603         5.61900
     2012.42165       -10.31626         5.48685
     2012.42436       -10.32323         5.42318
     2012.42712        -9.30643         5.40003
     2012.42984        -9.90343         5.45212
     2012.43259        -7.40863         5.48009
     2012.43531       -16.89262         5.47238
     2012.43807       -12.71283         5.39135
     2012.44079       -14.07682         5.48106
     2012.44355        -6.22303         5.69617
     2012.44626       -11.33502         5.47913
     2012.44902        -9.34622         5.50228
     2012.45174        -7.27722         5.44633
     2012.45527        -6.54167         8.25342
     2012.45722        -2.10841         5.56595
     2012.46292        -3.92687         5.85341
     2012.46630       -14.40551         8.77722
     2012.46817        -7.05181         5.40389
     2012.47092       -10.31001         5.46948
     2012.47364         2.22799         5.42993
     2012.47640        -5.46021         5.47141
     2012.47912         1.29879         5.51482
     2012.48188        -3.88741         5.48492
     2012.48459        -7.55040         5.51193
     2012.48735        -2.17161         5.45212
     2012.49007        -1.54960         5.44537
     2012.49283        -2.38080         5.45115
     2012.49555        -4.66180         5.55533
     2012.50650        -5.86919         5.39424
     2012.50925        -3.65140         5.50903
     2012.51197         0.68661         5.56595
     2012.51473         1.24041         5.51193
     2012.51745       -15.22959        14.10972
     2012.52020        -1.05077         5.77817
     2012.52292         0.72021         5.62479
     2012.52568         1.73404         8.95471
     2012.52840         2.18302         5.54086
     2012.54209         2.26952         5.54762
     2012.54483         4.69542         5.45694
     2012.54758         7.04525         5.40967
     2012.55030         0.86423         5.52061
     2012.55306        13.33605         5.52640
     2012.55578         1.07003         5.47913
     2012.56673         7.00663         5.40582
     2012.56948         7.68545         5.50421
     2012.57221        10.83743         5.39906
     2012.57496        10.27126         5.43283
     2012.57768        10.64824         5.47238
     2012.58043        10.61106         5.43186
     2012.58316        11.38704         5.51675
     2012.58591         7.91186         5.50131
     2012.58863         8.63984         5.59681
     2012.60041        -2.85811         8.86403
     2012.60324        12.15931        10.50198
     2012.60506        10.39525         5.50131
     2012.60781        10.47407         5.43475
     2012.61054         9.47205         5.35083
     2012.61328        10.13190         5.48588
     2012.61601        10.74585         5.46466
     2012.61876        19.88370         5.53025
     2012.62149        17.45066         5.45115
     2012.62360        10.70002         7.34087
     2012.70459       -17.99666        19.36023
     2012.73174       -62.65439        14.61422
     2012.79199       -39.79664        13.29557
     2012.79945       -34.80277         6.62608
     2012.84685       -44.00217        13.30425
     2012.84873       -47.20855         6.56917
     2012.85147       -52.13865         6.57206
     2012.85420       -50.84275         6.66659
     2012.85694       -43.55184         6.67431
     2012.85968       -40.00994         6.65502
     2012.86242       -43.66404         6.67045
     2012.86516       -44.04414         6.57013
     2012.86789       -52.63824         7.06017
     2012.87063       -52.21634         7.55792
     2012.87337       -44.39544         6.77560
     2012.87611       -47.62654         6.72833
     2012.87885       -39.97063         6.59425
     2012.88078       -47.02333         9.21709
     2012.88512       -39.98024        13.00425
     2012.88706       -43.48293         6.84312
     2012.88980       -36.25903         6.95309
     2012.89253       -33.73213         6.63187
     2012.89527       -46.66923         6.78814
     2012.89801       -63.06433         7.29554
     2012.90075       -47.62843         6.61547
     2012.90349       -56.61352         6.59039
     2012.90622       -44.26462         6.64730
     2012.90896       -35.25872         6.84409
     2012.91170       -36.18882         6.66370
     2012.91444       -38.39392         6.70904
     2012.91718       -36.16402         6.70421
     2012.91991       -28.57512         6.58267
     2012.92265       -38.39922         6.56627
     2012.92539       -41.84231         6.53058
     2012.92813       -43.35341         6.55759
     2012.93086       -53.61551         6.90389
     2012.93360       -55.18461         6.76499
     2012.93634       -44.33271         6.48524
     2012.93908       -50.67281         6.74376
     2012.94182       -43.59091         6.58074
     2012.94455       -38.10301         6.50454
     2012.94729       -47.16311         6.79875
     2012.95003       -38.86920         6.73026
     2012.95277       -37.92130         6.59232
     2012.95551       -59.43540         6.59039
     2012.95824       -43.02050         6.47077
     2012.96098       -47.34060         6.80743
     2012.96372       -41.20570         6.77656
     2012.96646       -26.38580         6.50743
     2012.96919       -43.51190         6.74376
     2012.97193       -48.97899         6.74762
     2012.97467       -45.59409         6.56048
     2012.97741       -45.07419         6.60003
     2012.98015       -44.16129         6.50357
     2012.98288       -47.33639         6.57302
     2012.98562       -44.57849         6.55952
     2012.98836       -42.14459         6.55759
     2012.99110       -52.87169         6.55470
     2012.99384       -66.12679         6.53444
     2012.99657       -61.78888         6.66370
     2012.99931       -57.35498         6.52962
     2013.00205       -54.05408         6.54601
     2013.00479       -42.27818         6.64055
     2013.00752       -58.99028         6.56820
     2013.01026       -54.50038         6.54505
     2013.01300       -51.28348         6.47560
     2013.01574       -49.70058         6.50839
     2013.01848       -35.01868         6.55566
     2013.02121       -62.52877         6.59232
     2013.02395       -53.40087         6.81515
     2013.02669       -56.62397         6.69264
     2013.02943       -47.99007         6.52383
     2013.03216       -52.56817         6.53637
     2013.03490       -57.41927         6.61065
     2013.03764       -67.23537         6.75438
     2013.04038       -69.80247         6.74762
     2013.04313       -57.25064         6.74762
     2013.04585       -55.39666         6.80550
     2013.04859       -51.34676         6.74859
     2013.05133       -52.47786         6.63669
     2013.05407       -63.03096         6.55084
     2013.05681       -51.87006         6.43122
     2013.05954       -57.68016         6.68492
     2013.06228       -66.20226         6.72351
     2013.06502       -54.24336         6.58460
     2013.06776       -44.99945         6.54312
     2013.07049       -56.60155         6.70421
     2013.07323       -55.20265         6.62319
     2013.07597       -49.66075         6.63862
     2013.07871       -54.71585         6.58171
     2013.08145       -56.84695         6.53830
     2013.08418       -58.81805         6.49585
     2013.08692       -64.45512         6.63766
     2013.08967       -65.82830         6.56048
     2013.09240       -61.00534         6.48428
     2013.09512       -44.74734         9.75825
     2013.09787       -49.01854         6.80840
     2013.10061       -51.11664         7.09586
     2013.10335       -50.83274         6.80743
     2013.10609       -55.36284         6.43894
     2013.10882       -61.96394         6.50936
     2013.11156       -74.51204         6.81032
     2013.11430       -60.85913         6.63766
     2013.11702       -59.90813         6.80647
     2013.11978       -56.10533         6.97335
     2013.12251       -60.01743         6.60100
     2013.12525       -65.47453         6.65020
     2013.12799       -64.39363         6.64730
     2013.13073       -67.64473         6.60389
     2013.13347       -56.09083         6.68106
     2013.13620       -57.20592         7.41322
     2013.13894       -61.69902         9.20166
     2013.14168       -57.78412         8.96918
     2013.14442       -53.95822         8.19458
     2013.14715       -50.03532         8.37207
     2013.14907       -62.32388        13.28882
     2013.15351       -58.49434        10.48848
     2013.15537       -73.40462         6.70421
     2013.15811       -68.33072         6.70325
     2013.16084       -65.42281         6.67528
     2013.16358       -65.01691         6.74955
     2013.16632       -65.35101         6.67624
     2013.16906       -59.41811         6.68492
     2013.17180       -67.22621         6.85180
     2013.17453       -68.44731         6.63283
     2013.17727       -61.08041         6.88557
     2013.18001       -67.54751         6.98107
     2013.18275       -61.98260         6.72447
     2013.18548       -66.34570         6.69457
     2013.18822       -63.13780         6.74087
     2013.19096       -63.58590         6.57688
     2013.19370       -59.82300         6.61933
     2013.19644       -67.50310         6.60003
     2013.19917       -62.84620         6.63283
     2013.20191       -57.12030         6.66177
     2013.20465       -68.15940         6.68106
     2013.20739       -60.78749         6.91547
     2013.21013       -62.58059         6.58267
     2013.21286       -61.82269         6.58749
     2013.21560       -51.22879         6.52672
     2013.21834       -60.89089         8.05085
     2013.22108       -69.58599         6.62511
     2013.22381       -70.38109         6.59135
     2013.22655       -69.36019         6.62608
     2013.22929       -61.21329         6.58846
     2013.23203       -60.24438         6.49875
     2013.23477       -65.76148         6.58267
     2013.23750       -71.11258         6.84023
     2013.24024       -67.78768         6.94923
     2013.24298       -69.65278         6.85373
     2013.24572       -58.57688         6.75245
     2013.24846       -59.53298         6.91836
     2013.25119       -54.44508         6.86627
     2013.25393       -67.55617         6.75534
     2013.25667       -66.84727         7.06209
     2013.25941       -54.90037         6.81708
     2013.26214       -51.87647         6.75631
     2013.26488       -56.70157         6.71483
     2013.26762       -65.44567         6.89425
     2013.27036       -66.82177         6.85084
     2013.27310       -59.16387         7.10357
     2013.27583       -60.95097         7.18846
     2013.27857       -54.09406         7.24538
     2013.28131       -59.66216         6.81418
     2013.28405       -69.21726         6.84312
     2013.28679       -69.11936         6.87110
     2013.28952       -65.74346         6.88267
     2013.29226       -59.27856         6.80743
     2013.29500       -55.17566         6.73701
     2013.29774       -65.30376         6.88942
     2013.30047       -71.67785         6.93380
     2013.30321       -76.63295         6.80164
     2013.30595       -72.49605         6.75245
     2013.30869       -63.80815         6.73605
     2013.31143       -74.07925         6.92512
     2013.31416       -63.45835         7.08428
     2013.31690       -56.88745         6.95020
     2013.31964       -64.78355         6.95598
     2013.32238       -61.56065         6.80068
     2013.32512       -59.92074         6.79393
     2013.32785       -67.19884         6.86338
     2013.33059       -70.28294         6.96660
     2013.33333       -69.45904         6.79778
     2013.33607       -76.12614         6.74666
     2013.33880       -63.98424         6.98010
     2013.34154       -63.54634         6.86242
     2013.34428       -69.61644         6.99746
     2013.34702       -64.07253         6.91451
     2013.34976       -70.79463         6.80357
     2013.35249       -71.15773         6.79200
     2013.35523       -60.92983         6.91451
     2013.35797       -52.64393         6.89907
     2013.36071       -60.89203         6.79586
     2013.36344       -59.80613         6.94730
     2013.36618       -64.21123         6.79682
     2013.36892       -56.58633         6.74280
     2013.37166       -56.68042         6.85277
     2013.37440       -57.60352         6.93573
     2013.37713       -63.39462         7.06499
     2013.37987       -72.46272         6.97914
     2013.38261       -68.42982         6.82865
     2013.38535       -61.34292         6.88171
     2013.38809       -57.69902         6.88074
     2013.39082       -60.94812         6.96081
     2013.39356       -58.50022         6.89618
     2013.39630       -59.57731         7.07367
     2013.39904       -52.90141         6.85856
     2013.40177       -55.07151         6.95309
     2013.40451       -56.12661         6.97528
     2013.40725       -52.07071         7.04184
     2013.40999       -58.85781         7.03605
     2013.41273       -54.66791         6.93862
     2013.41546       -59.76901         7.24923
     2013.41820       -55.82010         7.03316
     2013.42094       -55.46720         7.00904
     2013.42368       -65.43330         7.22512
     2013.42642       -58.66640         6.89714
     2013.42915       -56.82150         6.86145
     2013.43189       -50.33360         6.97238
     2013.43463       -54.84370         6.94923
     2013.43737       -61.26180         6.88364
     2013.44010       -57.50490         6.96949
     2013.44284       -55.03999         6.98107
     2013.44558       -55.45909         7.13637
     2013.44832       -54.90719         6.89907
     2013.45106       -61.19629         6.90486
     2013.45379       -46.82439         6.93187
     2013.45653       -51.15349         6.90293
     2013.45927       -51.95559         6.93187
     2013.46201       -49.69169         6.87688
     2013.46475       -53.23478         7.05727
     2013.46748       -55.74388         6.90197
     2013.47022       -48.80198         6.96370
     2013.47296       -50.23008         6.86338
     2013.47570       -49.56318         6.93090
     2013.47843       -45.72628         7.17496
     2013.48117       -47.06738         6.91065
     2013.48391       -42.84348         6.93380
     2013.48665       -55.50958         6.93380
     2013.48939       -44.97567         7.14698
     2013.49212       -42.47277         7.50679
     2013.49486       -54.45787         7.25599
     2013.49760       -48.35797         7.10743
     2013.50034       -43.88207         7.03508
     2013.50308       -46.06117         7.17399
     2013.50581       -46.68427         6.87688
     2013.50855       -49.19237         6.87978
     2013.51129       -45.53646         7.14988
     2013.51403       -50.67656         6.94537
     2013.51676       -46.35966         6.96081
     2013.51950       -55.59476         7.04666
     2013.52224       -50.87186         7.01000
     2013.52498       -43.26096         7.09200
     2013.52772       -46.93806         6.88942
     2013.53045       -50.87416         6.84891
     2013.53319       -45.43326         6.96274
     2013.53593       -45.34435         6.86724
     2013.53867       -56.56845         6.92608
     2013.54141       -43.58555         6.91354
     2013.54414       -45.80265         6.88846
     2013.54688       -49.46475         6.87399
     2013.54962       -44.43785         6.82383
     2013.55236       -41.52495         6.97142
     2013.55509       -47.85905         7.08042
     2013.55783       -42.83214         6.94055
     2013.56057       -53.22024         6.88267
     2013.56331       -46.69634         6.92994
     2013.56605       -51.36844         6.86049
     2013.56878       -44.12454         7.00422
     2013.57152       -45.47664         6.87785
     2013.57424       -38.50963         6.93476
     2013.57700       -40.81784         7.01000
     2013.57974       -49.86594         6.97721
     2013.58247       -40.02403         6.91933
     2013.58521       -44.68513         6.99264
     2013.58795       -45.24723         6.84698
     2013.59069       -45.79933         6.89618
     2013.59342       -45.51043         7.13058
     2013.59616       -42.11553         6.91740
     2013.59890       -45.12763         6.99553
     2013.60164       -46.01073         7.17110
     2013.60438       -46.98783         7.01193
     2013.60711       -46.82492         7.00518
     2013.60985       -47.64502         7.04377
     2013.61259       -41.82512         7.10068
     2013.61533       -35.21822         7.17978
     2013.61807       -48.09432         7.29457
     2013.62080       -44.33342         7.11226
     2013.62354       -43.56952         6.99361
     2013.62628       -36.37362         6.89135
     2013.62902       -41.30471         6.89618
     2013.63175       -48.51481         6.96177
     2013.63449       -44.21991         6.79586
     2013.63723       -45.00301         7.03894
     2013.63997       -40.46911         7.06692
     2013.64271       -37.26621         7.10840
     2013.64544       -36.48131         7.02640
     2013.64818       -42.35541         6.95020
     2013.65092       -43.95551         6.97238
     2013.65366       -44.03160         6.90389
     2013.65639       -43.88470         6.93187
     2013.65913       -39.31680         7.38235
     2013.66187       -40.57390         6.96081
     2013.66461       -45.31000         6.87399
     2013.66735       -41.74210         6.98010
     2013.67008       -39.75020         6.85663
     2013.67282       -31.83730         7.08332
     2013.67556       -34.52039         7.14119
     2013.67830       -33.30749         6.92801
     2013.68104       -39.05459         6.95116
     2013.68377       -46.15769         6.92897
     2013.68651       -27.07079         7.31386
     2013.68925       -38.49489         6.91547
     2013.69199       -37.14399         7.16628
     2013.69472       -44.58209         7.02544
     2013.69746       -48.59119         6.83926
     2013.70020       -42.02328         6.91354
     2013.70294       -39.47038         6.95406
     2013.70568       -39.01848         7.01290
     2013.70841       -45.66058         6.98203
     2013.71115       -48.75668         6.95695
     2013.71389       -47.30978         6.88653
     2013.71663       -34.99688         6.98975
     2013.71937       -27.65298         6.95020
     2013.72210       -42.19507         6.98010
     2013.72484       -36.86617         6.84602
     2013.72758       -34.54827         6.99650
     2013.73032       -37.83837         6.86917
     2013.73305       -44.19647         6.84987
     2013.73579       -47.42257         7.12287
     2013.73853       -46.39067         6.85084
     2013.74127       -38.23477         6.74087
     2013.74401       -34.06487         6.89714
     2013.74674       -36.77896         6.82383
     2013.74948       -39.89406         6.75631
     2013.75222       -47.34616         7.06692
     2013.75496       -58.92026         6.89907
     2013.75770       -44.08236         6.99553
     2013.76043       -40.93646         6.78814
     2013.76317       -38.60656         6.80068
     2013.76591       -38.27266         6.85759
     2013.76865       -47.09276         6.83348
     2013.77138       -52.13985         7.17785
     2013.77412       -37.29095         6.81804
     2013.77686       -43.28305         6.80261
     2013.77960       -45.75215         6.79875
     2013.78234       -57.71225         7.00711
     2013.78507       -53.27935         6.92994
     2013.78781       -46.45845         6.86338
     2013.79055       -45.19155         6.92222
     2013.79329       -52.01264         6.94248
     2013.79603       -41.68974         6.80357
     2013.79876       -49.81484         6.84891
     2013.80150       -52.09494         7.00904
     2013.80410       -49.33425         7.85985
     2013.80782       -62.39978        26.09435
     2013.80971       -42.03421        25.09595
     2013.81242       -44.43715        15.45056
     2013.81519       -43.43244         9.86629
     2013.81793       -51.45353         7.18557
     2013.82067       -55.62263         6.82672
     2013.82340       -51.16873         7.07849
     2013.82614       -46.83683         7.05052
     2013.82888       -49.40993         7.28782
     2013.83162       -41.38203         7.02833
     2013.83436       -34.05913         7.14795
     2013.83709       -46.41723         7.07849
     2013.83983       -45.87932         7.17592
     2013.84257       -46.87942         7.10647
     2013.84531       -55.67452         7.13637
     2013.84804       -50.85362         6.78042
     2013.85078       -47.17172         7.00711
     2013.85352       -43.89082         6.86627
     2013.85626       -52.05992         7.53091
     2013.85900       -53.98302         6.80550
     2013.86173       -41.51412         7.11226
     2013.86447       -47.77621         6.80454
     2013.86721       -43.26631         7.01483
     2013.86995       -52.49941         6.77946
     2013.87269       -41.85351         6.81515
     2013.87542       -40.10661         6.78235
     2013.87816       -40.29771         6.76692
     2013.88090       -38.53581         6.88460
     2013.88364       -36.25891         6.88074
     2013.88637       -50.23200         6.75245
     2013.88911       -39.67310         6.77270
     2013.89185       -48.45320         6.77174
     2013.89459       -42.33130         7.04955
     2013.89733       -47.05040         6.92415
     2013.90006       -48.25250         7.00615
     2013.90280       -48.25060         6.84602
     2013.90554       -43.24970         6.85566
     2013.90828       -43.18080         7.05824
     2013.91102       -49.64389         6.92222
     2013.91375       -58.16399         6.82672
     2013.91649       -49.09509         6.77849
     2013.91923       -43.61019         6.74955
     2013.92197       -50.81029         6.78621
     2013.92470       -50.03339         6.80550
     2013.92744       -50.17849         6.86531
     2013.93018       -58.52659         6.91451
     2013.93292       -56.04668         6.85084
     2013.93566       -49.64478         6.99843
     2013.93839       -44.86988         6.81708
     2013.94113       -54.87898         6.80261
     2013.94387       -59.75708         6.93766
     2013.94661       -48.85718         7.04666
     2013.94935       -37.82528         6.80840
     2013.95208       -46.87138         6.88460
     2013.95482       -61.28548         7.07560
     2013.95756       -52.94357         6.96852
     2013.96030       -77.45167         7.00229
     2013.96303       -52.59777         6.86917
     2013.96577       -52.43687         6.89425
     2013.96851       -59.12097         6.87110
     2013.97125       -72.51707         6.88846
     2013.97399       -76.12017         6.96177
     2013.97672       -49.83827         6.99168
     2013.97946       -54.82137         6.92801
     2013.98220       -43.24846         7.08332
     2013.98494       -50.84756         6.82190
     2013.98767       -63.93166         6.87110
     2013.99041       -64.69176         6.94730
     2013.99315       -69.16786         7.00807
     2013.99589       -56.67096         7.02254
     2013.99863       -47.41406         6.95213
     2014.00136       -73.25616         6.85180
     2014.00410       -72.25625         6.95598
     2014.00684       -62.62535         6.95116
     2014.00958       -52.71045         6.87013
     2014.01232       -54.10655         6.98107
     2014.01505       -55.02065         6.95116
     2014.01779       -51.57575         7.03701
     2014.02053       -57.61885         6.79393
     2014.02327       -48.87295         7.33991
     2014.02600       -44.19405         7.20583
     2014.02874       -53.39914         6.98975
     2014.03148       -48.63724         6.94730
     2014.03422       -58.63834         6.82962
     2014.03696       -53.06844         7.05052
     2014.03969       -66.90654         7.07946
     2014.04243       -51.95364         7.46821
     2014.04517       -50.33574         7.41129
     2014.04791       -53.66384         6.97238
     2014.05065       -54.12693         6.91740
     2014.05338       -59.36303         6.97238
     2014.05612       -65.52313         6.97817
     2014.05886       -59.13723         6.87013
     2014.06160       -56.63433         6.92222
     2014.06433       -54.71443         7.23862
     2014.06707       -60.34953         7.23862
     2014.06981       -58.00463         6.91643
     2014.07255       -47.69973         6.82383
     2014.07529       -51.10082         6.91836
     2014.07802       -57.08592         6.84119
     2014.08076       -58.22802         6.90679
     2014.08350       -54.39912         6.96274
     2014.08624       -59.29222         6.78428
     2014.08898       -51.85332         7.21740
     2014.09171       -49.05242         7.30615
     2014.09445       -66.89952         6.89328
     2014.09719       -68.39361         6.89618
     2014.09993       -59.72071         7.10743
     2014.10266       -49.03481         7.17785
     2014.10540       -54.40191         6.91933
     2014.10814       -54.93001         6.88171
     2014.11088       -53.15911         7.04666
     2014.11362       -54.58721         6.96852
     2014.11635       -48.39931         6.96467
     2014.11909       -52.57541         6.86820
     2014.12183       -49.01350         7.19521
     2014.12457       -44.48460         6.83733
     2014.12731       -45.35370         6.88460
     2014.13004       -41.44380         6.97914
     2014.13278       -49.75290         7.49039
     2014.13552       -45.31100         7.64184
     2014.14099       -60.77020         6.92801
     2014.14373       -61.41630         7.01386
     2014.14647       -55.37939         7.09972
     2014.14921       -56.60349         7.14988
     2014.15195       -56.42159         7.09007
     2014.15468       -55.65869         7.26756
     2014.15742       -53.13179         7.41612
     2014.16016       -57.07389         7.58879
     2014.16290       -61.06299         7.14602
     2014.16564       -57.66009         7.11129
     2014.16837       -59.42218         7.07656
     2014.17111       -60.18628         7.16435
     2014.17385       -55.88638         7.01869
     2014.17659       -49.91848         7.27431
     2014.17932       -56.33458         7.41708
     2014.18206       -67.72968         7.43155
     2014.18480       -50.66578         7.04859
     2014.18754       -56.08288         7.09296
     2014.19028       -57.72898         6.98589
     2014.19301       -44.48707         7.13058
     2014.19575       -63.92517         7.23959
     2014.19849       -51.98827         7.23476
     2014.20123       -55.65237         7.14698
     2014.20397       -53.08647         7.15181
     2014.20670       -67.73657         7.06209
     2014.20944       -60.80467         7.26370
     2014.21218       -55.37977         7.23380
     2014.21492       -56.83886         7.03605
     2014.21765       -65.21796         7.17882
     2014.22039       -61.37806         7.16338
     2014.22313       -63.96416         7.10164
     2014.22587       -57.98426         7.24634
     2014.22861       -62.49236         7.10936
     2014.23134       -56.18246         7.19521
     2014.23408       -57.80856         7.20775
     2014.23682       -58.53366         7.10357
     2014.23956       -58.00375         7.21933
     2014.24230       -60.44585         7.02640
     2014.24503       -66.70395         6.97142
     2014.24777       -66.85305         7.75760
     2014.25051       -62.52915         6.99361
     2014.25325       -61.04825         7.01386
     2014.25598       -57.94935         7.47978
     2014.25872       -55.35545         7.06885
     2014.26146       -58.29154         7.34859
     2014.26420       -65.22164         7.06595
     2014.26694       -62.83574         7.33412
     2014.26967       -57.31284         7.06306
     2014.27241       -53.54894         7.49618
     2014.27515       -65.50704         7.37464
     2014.27789       -72.04314         7.46917
     2014.28062       -62.48024         7.22994
     2014.28336       -61.42034         7.26756
     2014.28610       -57.81543         7.27335
     2014.28884       -71.32953         7.48075
     2014.29158       -68.13663         7.12962
     2014.29431       -67.47873         7.01579
     2014.29705       -61.87283         7.05920
     2014.29979       -70.06893         7.12480
     2014.30253       -59.32903         7.23476
     2014.30527       -57.13313         7.11322
     2014.30800       -61.50523         7.83380
     2014.31074       -58.46732         7.20293
     2014.31348       -66.69442         7.14505
     2014.31622       -62.28852         7.09200
     2014.31895       -60.90462         7.00325
     2014.32169       -62.52672         7.01386
     2014.32443       -68.13082         7.05920
     2014.32717       -69.35892         7.26853
     2014.32991       -57.96502         7.40165
     2014.33264       -70.26411         7.25406
     2014.33538       -66.83021         6.96563
     2014.33812       -59.55331         6.94344
     2014.34086       -57.23641         7.04473
     2014.34360       -65.35551         7.08235
     2014.34633       -68.99861         7.28493
     2014.34907       -61.39471         7.46145
     2014.35181       -55.92381         7.25984
     2014.35455       -53.91591         6.90679
     2014.35728       -60.43700         7.12480
     2014.36002       -68.27010         7.20679
     2014.36276       -67.73420         7.08428
     2014.36550       -57.55230         7.08139
     2014.36824       -59.56540         7.18364
     2014.37097       -60.91850         7.16242
     2014.37371       -54.89060         7.14312
     2014.37645       -53.04170         6.99361
     2014.37919       -60.23579         7.08139
     2014.38193       -72.93189         7.15181
     2014.38466       -59.86499         7.06306
     2014.38740       -56.40509         7.23187
     2014.39014       -56.31619         7.18364
     2014.39288       -55.43229         7.15759
     2014.39561       -57.43039         7.20968
     2014.39835       -57.37849         6.95695
     2014.40109       -57.63959         6.95406
     2014.40383       -57.33868         7.09972
     2014.40657       -56.41078         7.04280
     2014.40930       -57.59188         7.07946
     2014.41204       -61.99998         6.99843
     2014.41478       -54.85708         7.01097
     2014.41752       -49.03718         7.17013
     2014.42026       -55.44528         7.04377
     2014.42299       -55.30038         7.27046
     2014.42573       -67.98247         7.12576
     2014.42847       -54.57157         7.23476
     2014.43121       -54.32667         7.01676
     2014.43394       -52.08277         7.18460
     2014.43668       -57.04687         7.04859
     2014.43942       -54.28897         7.16435
     2014.44216       -58.78707         7.03701
     2014.44490       -42.62817         7.14216
     2014.44763       -46.48627         7.40068
     2014.45037       -50.60936         7.13637
     2014.45311       -55.06246         7.03123
     2014.45585       -60.24856         7.12383
     2014.45859       -50.46866         7.18653
     2014.46132       -49.31876         7.14891
     2014.46406       -48.12686         7.14409
     2014.46680       -55.09396         7.18557
     2014.46954       -59.38106         7.03026
     2014.47227       -53.95015         6.98589
     2014.47501       -51.09625         6.98010
     2014.47775       -52.80935         7.24248
     2014.48049       -60.97145         7.09779
     2014.48323       -52.15055         7.45663
     2014.48596       -44.49365         7.10936
     2014.48870       -42.42275         7.08139
     2014.49144       -48.65985         7.06209
     2014.49418       -48.68995         7.15759
     2014.49692       -61.45004         7.23283
     2014.49965       -49.46314         7.77496
     2014.50239       -52.11524         7.07463
     2014.50513       -40.97834         7.09586
     2014.50787       -56.93944         7.06788
     2014.51060       -47.78854         7.09682
     2014.51334       -50.86664         7.19811
     2014.51608       -49.95074         7.12094
     2014.51882       -57.41684         7.81451
     2014.52156       -47.48293         7.53477
     2014.52429       -48.16903         7.12673
     2014.52703       -47.21513         7.18364
     2014.52977       -48.41623         7.16531
     2014.53251       -47.33733         7.35824
     2014.53525       -38.92943         7.52512
     2014.53798       -35.14953         7.35824
     2014.54072       -39.56763         7.16628
     2014.54346       -46.63872         7.16724
     2014.54620       -41.37682         7.15470
     2014.54893       -48.25192         7.11804
     2014.55167       -50.51002         7.17303
     2014.55441       -51.60512         7.18557
     2014.55715       -49.20922         7.16242
     2014.55989       -39.35732         7.45084
     2014.56262       -38.70642         7.19618
     2014.56536       -52.33552         7.05534
     2014.56810       -51.50061         7.01965
     2014.57084       -56.21471         7.01579
     2014.57357       -50.43881         7.30615
     2014.57631       -47.13991         7.24634
     2014.57905       -45.39701         7.32930
     2014.58179       -45.83211         7.21354
     2014.58453       -46.50521         7.09296
     2014.58726       -48.75031         7.72191
     2014.59000       -47.05440         7.41612
     2014.59274       -46.88350         7.70840
     2014.59548       -45.68060         7.74313
     2014.59822       -48.89570         7.85406
     2014.60095       -39.80680         7.88686
     2014.60369       -39.07890         7.44505
     2014.60643       -39.67000         7.72769
     2014.60917       -40.92110         7.48750
     2014.61190       -43.25620         7.76435
     2014.61464       -47.48429         7.47014
     2014.61738       -39.54039         8.17625
     2014.62012       -32.70849         7.65535
     2014.62286       -53.70259         7.87528
     2014.62559       -32.75669         7.69972
     2014.62833       -44.77079         7.60422
     2014.63107       -36.33589         7.58396
     2014.63381       -41.86099         7.42769
     2014.63655       -31.42208         7.70551
     2014.63928       -31.49018         7.43830
     2014.64202       -43.22628         7.49232
     2014.64476       -45.88538         7.45663
     2014.64750       -46.35148         7.68043
     2014.65023       -39.67558         7.54924
     2014.65297       -36.46268         7.90808
     2014.65571       -46.31978         7.58686
     2014.65845       -38.81488         7.60904
     2014.66119       -44.24397         7.55213
     2014.66392       -34.85707         7.60133
     2014.66666       -31.58517         7.52223
     2014.66940       -40.76727         7.77689
     2014.67214       -33.12837         7.97946
     2014.67488       -46.75647         9.48912
     2014.67761       -54.74657         7.68043
     2014.68035       -48.51467         7.66692
     2014.68309       -49.13577         7.72576
     2014.68583       -46.55986         7.68525
     2014.68856       -47.28096         7.64666
     2014.69130       -48.85106         7.95438
     2014.69404       -52.43216         7.68621
     2014.69678       -55.64826         7.67560
     2014.69952       -58.37736         7.61580
     2014.70225       -50.24446         7.57142
     2014.70499       -50.33256         7.68621
     2014.70773       -36.75365         8.03541
     2014.71047       -50.54475         7.63219
     2014.71321       -41.49085         7.69490
     2014.71594       -33.55595         8.54088
     2014.71868       -40.30705         7.61290
     2014.72142       -40.30315         7.76146
     2014.72416       -42.80725         7.77592
     2014.72689       -52.32835         7.87818
     2014.72963       -46.49545         7.79522
     2014.73237       -28.68454         7.65824
     2014.73511       -43.33464         7.76724
     2014.73785       -36.55974         7.61097
     2014.74058       -41.07184         7.79425
     2014.74308       -28.04863         8.74924
     2014.74882       -39.38624         8.10294
     2014.75154       -44.87024         7.99779
     2014.75427       -42.20433        10.81742
     2014.75701       -52.21843         7.99297
     2014.75975       -45.67553         8.10583
     2014.76249       -26.61863         8.68172
     2014.76522       -40.02873         7.82030
     2014.76796       -36.54983         7.71515
     2014.77070       -45.55093         8.00358
     2014.77344       -28.89803         8.15213
     2014.77618       -46.56213         7.77978
     2014.77891       -39.78322         7.66692
     2014.78165       -30.39032         7.90808
     2014.78439       -41.96142         7.71033
     2014.78713       -37.50052         7.79329
     2014.78987       -46.54562         7.48364
     2014.79260       -40.16972         7.68139
     2014.80141       -44.88427        14.37499
     2014.80355       -39.15511         7.86660
     2014.80629       -33.71021         7.77110
     2014.80903       -37.31131         7.59457
     2014.81177       -43.64541         7.47206
     2014.81451       -36.77251         7.59168
     2014.81724       -36.05661         7.55792
     2014.81998       -33.57671         7.69972
     2014.82272       -32.28781         7.83863
     2014.82546       -40.97390         7.52994
     2014.82820       -41.69300         7.52030
     2014.83093       -37.94610         8.47625
     2014.83367       -35.52520         8.27946
     2014.83641       -28.04730         8.29200
     2014.83915       -41.77140         8.03638
     2014.84188       -24.18950         8.88622
     2014.84462       -50.60960         8.13959
     2014.84736       -36.15870         8.09040
     2014.85010       -40.20379         8.54570
     2014.85284       -43.34689         8.00261
     2014.85557       -46.37999         8.05567
     2014.85831       -45.43509         8.26403
     2014.86105       -48.19519         8.14634
     2014.86379       -45.31829         8.22544
     2014.86653       -58.09139         8.15696
     2014.86926       -52.44049         8.09811
     2014.87200       -52.68358         8.09329
     2014.87474       -44.36768         8.16564
     2014.87748       -47.48378         8.02287
     2014.88016       -47.82757         8.35856
     2014.88295       -49.16398         8.12030
     2014.88569       -46.86808         8.06628
     2014.88843       -34.44918         8.66918
     2014.89117       -30.77628         8.23606
     2014.89390       -36.97838         8.12319
     2014.89664       -55.39147         7.93991
     2014.89938       -56.90257         7.96982
     2014.90212       -50.34867         7.73734
     2014.90485       -44.59177         7.98429
     2014.90759       -39.90187         7.78268
     2014.91033       -48.00997         7.86853
     2014.91307       -50.75307         7.89940
     2014.91581       -54.05317         7.78943
     2014.91854       -53.80926         7.95245
     2014.92128       -50.37036         8.07014
     2014.92402       -42.93146         7.94474
     2014.92676       -52.28756         7.97367
     2014.92950       -56.36866         7.92834
     2014.93223       -49.48576         8.05953
     2014.93497       -45.57486         8.19747
     2014.93771       -43.71596         7.99779
     2014.94045       -39.15606         8.19747
     2014.94318       -42.81215         7.92062
     2014.94592       -43.86425         8.21676
     2014.94866       -49.05835         8.04023
     2014.95140       -50.44945         7.97946
     2014.95414       -51.15755         8.12898
     2014.95687       -50.44165         8.32287
     2014.95961       -47.41575         8.42802
     2014.96235       -40.35785         8.06917
     2014.96509       -48.44494         8.07689
     2014.96783       -48.84004         8.01419
     2014.97056       -51.33414         8.23991
     2014.97330       -57.31624         8.49072
     2014.97604       -59.03634         8.20615
     2014.97878       -38.64644         8.20326
     2014.98151       -40.18454         8.28525
     2014.98425       -57.34664         8.13766
     2014.98699       -53.71574         8.08847
     2014.98973       -58.62983         8.20229
     2014.99247       -54.73493        10.12867
     2014.99520       -54.94203         8.47432
     2014.99794       -55.72413         8.38847
     2015.00342       -49.58533         8.22930
     2015.00616       -58.90943         8.24667
     2015.00889       -37.43453         8.98365
     2015.01163       -46.66062         8.40101
     2015.01437       -58.75672         8.49747
     2015.01711       -53.71982         8.92866
     2015.01984       -45.22292         8.57947
     2015.02258       -42.98802         8.94699
     2015.02532       -39.05112         8.67304
     2015.02806       -54.24522         8.70101
     2015.03080       -45.14032         8.42995
     2015.03353       -49.64742         8.58043
     2015.03627       -45.76551         8.55439
     2015.03901       -38.95661         8.63156
     2015.04175       -41.32771         8.59008
     2015.04449       -50.37881         8.57078
     2015.04722       -43.98891         8.60262
     2015.04996       -51.17401         8.43574
     2015.05270       -57.59711         9.72835
     2015.05544       -45.10121         8.77915
     2015.05817       -43.39731         8.72802
     2015.06091       -62.46940         8.87464
     2015.06365       -45.12150         8.56885
     2015.06639       -51.09760         8.77046
     2015.06913       -49.01870         8.76853
     2015.07186       -51.84680         8.76661
     2015.07460       -60.22590         8.64506
     2015.07734       -60.75200         8.65181
     2015.08008       -60.48310         8.66821
     2015.08282       -58.17919         8.46853
     2015.08555       -50.17429         8.63638
     2015.08829       -41.80039         8.56017
     2015.09103       -49.37549         8.47914
     2015.09377       -48.15659         8.70197
     2015.09616       -47.25280        10.71131
     2015.09919       -32.71847         9.24024
     2015.10198       -46.25491         8.66050
     2015.10472       -51.49199         8.65567
     2015.10746       -55.57808         8.47239
     2015.11019       -57.01218         8.46178
     2015.11293       -63.97728         8.58525
     2015.11567       -60.37838         8.69812
     2015.11841       -40.48048         8.51194
     2015.12115       -49.43758         8.67786
     2015.12388       -58.24468         8.73091
     2015.12662       -54.45078         8.81870
     2015.12936       -57.44887         8.60358
     2015.13210       -53.63497         8.69426
     2015.13483       -56.37607         8.95278
     2015.13757       -54.96517         8.85825
     2015.14031       -58.77927         8.70776
     2015.14305       -45.59737         8.67400
     2015.14579       -48.58147         8.90841
     2015.14852       -51.16357         8.76853
     2015.15126       -63.64867         8.76371
     2015.15400       -56.19676         8.71934
     2015.15674       -53.36186         8.53895
     2015.15948       -44.66996         8.64892
     2015.16221       -55.87606         8.69908
     2015.16495       -58.19016         9.13606
     2015.16769       -58.24626         8.70294
     2015.17043       -49.82436         8.52834
     2015.17316       -47.42446         9.04538
     2015.17590       -48.91555        10.17690
     2015.17864       -59.91665         8.67111
     2015.18138       -60.27575         8.61226
     2015.18412       -45.90085         8.61805
     2015.18685       -50.04795         8.70873
     2015.18959       -48.54405         8.51580
     2015.19233       -38.02415         8.72127
     2015.19507       -43.44125         8.68075
     2015.19780       -48.68435         8.57657
     2015.20054       -49.68644         8.49168
     2015.20328       -44.64054         8.71355
     2015.20602       -62.51864        10.98720
     2015.20876       -50.63974         9.34732
     2015.21149       -69.99684         9.13895
     2015.21423       -52.14694         9.27786
     2015.21697       -48.35804         8.56500
     2015.21971       -49.34814         8.94313
     2015.22245       -53.96923         8.65953
     2015.22518       -53.46733         8.70873
     2015.22792       -49.45143         8.56982
     2015.23066       -56.73353         8.63638
     2015.23340       -49.40363         8.79458
     2015.23613       -52.43473         8.70101
     2015.23887       -51.25083         9.41002
     2015.24161       -49.40293         9.41098
     2015.24435       -42.72603         9.19104
     2015.24709       -43.03412         9.07432
     2015.24982       -42.22222         8.56307
     2015.25256       -38.72432         8.84474
     2015.25530       -55.28942         8.79265
     2015.25804       -57.75752         8.73381
     2015.26078       -41.70162         8.69040
     2015.26351       -50.44272         8.88043
     2015.26625       -54.24882         8.86886
     2015.26899       -57.19292         9.09362
     2015.27173       -37.09601         9.02995
     2015.27446       -31.90011         8.92866
     2015.27720       -45.02221         8.74442
     2015.27994       -47.03931         8.66821
     2015.28268       -43.89541         8.60648
     2015.28542       -48.49851         9.49683
     2015.28815       -47.56661         9.62320
     2015.29089       -72.13871         8.65664
     2015.29363       -62.97280         8.56982
     2015.29637       -63.32790         8.65953
     2015.29911       -57.29900         8.77625
     2015.30184       -47.33510         9.02802
     2015.30458       -52.40020         8.67207
     2015.30732       -51.87630         9.07047
     2015.31006       -63.57440         8.84860
     2015.31279       -63.43450         8.65953
     2015.31553       -55.84760         8.75599
     2015.31827       -62.23269         8.76661
     2015.32101       -51.16279         9.04153
     2015.32375       -58.97489         9.00873
     2015.32648       -56.92699         9.14474
     2015.32922       -58.32509         8.98461
     2015.33196       -58.69119         8.59972
     2015.33470       -53.86329         8.51194
     2015.33744       -55.03239         8.54088
     2015.34017       -62.48548         8.69619
     2015.34291       -58.61058         8.49168
     2015.34565       -57.80268         8.79265
     2015.34839       -57.99878         9.22577
     2015.35112       -58.55488         8.69136
     2015.35352       -63.80109         9.79587
     2015.35740       -53.08948        14.37499
     2015.35934       -48.05518         9.08011
     2015.36208       -48.33328         8.83895
     2015.36481       -51.62937         8.43574
     2015.36755       -60.27947         8.45696
     2015.37029       -60.90757         8.36049
     2015.37297       -37.59236         9.00873
     2015.37577       -62.72080         8.42319
     2015.37850       -62.01287         8.67882
     2015.38124       -55.77497         8.60840
     2015.38398       -57.81907         8.47721
     2015.38672       -60.80916         8.45792
     2015.38946       -62.40732         8.63059
     2015.39219       -50.96936         8.94603
     2015.39493       -50.68546         8.84763
     2015.39767       -47.73056         8.50422
     2015.40041       -59.76166         8.37110
     2015.40314       -52.75876         8.60069
     2015.40588       -49.22086         8.46082
     2015.40862       -45.21896         8.45406
     2015.41136       -49.65005         8.61709
     2015.41410       -46.37415         8.67593
     2015.41683       -52.55725         8.79458
     2015.41955       -51.86222         8.55921
     2015.42232       -44.42650         8.51676
     2015.42505       -74.58255         9.71484
     2015.42778       -58.25965         8.45310
     2015.43052       -44.88375         8.84860
     2015.43326       -53.50885         8.82448
     2015.43600       -48.52294         8.95857
     2015.43874       -49.59504         8.67593
     2015.44147       -48.60914         8.68461
     2015.44421       -51.49724         8.81580
     2015.44695       -52.72334         8.58332
     2015.44969       -41.54244         8.65278
     2015.45243       -35.69454         8.53509
     2015.45516       -48.71164         8.74152
     2015.45790       -55.03373         8.73188
     2015.46064       -30.35483        13.87242
     2015.46338       -38.05193         8.59297
     2015.46611       -36.47203         8.41934
     2015.46885       -40.62413         8.47046
     2015.47159       -30.30123         8.82641
     2015.47433       -38.84933         9.90584
     2015.47707       -51.31743         9.20166
     2015.47980       -37.57953         8.85149
     2015.48254       -43.76262         8.76468
     2015.48528       -46.47972         8.70197
     2015.48802       -48.22082         8.35278
     2015.49076       -62.26592         8.96628
     2015.49349       -39.54802         8.81194
     2015.49623       -38.82112         8.53413
     2015.49897       -46.17522         9.21420
     2015.50171       -45.80432         8.79651
     2015.50444       -37.46641         8.65181
     2015.50718       -42.33951         8.69329
     2015.50992       -45.29761         8.69522
     2015.51266       -36.02871         8.94699
     2015.51540       -52.69181         8.88333
     2015.51813       -23.91591         8.96821
     2015.52087       -33.21601         8.90648
     2015.52361       -46.21611         8.97400
     2015.52635       -48.16721         8.73960
     2015.52908       -45.03530         8.84378
     2015.53182       -41.20440         8.57464
     2015.53456       -41.93350         8.52448
     2015.53730       -38.19960         8.56596
     2015.54004       -40.59870         9.22770
     2015.54277       -45.23280         8.95857
     2015.54551       -37.47990         9.07915
     2015.54825       -30.83200         9.22191
     2015.55099       -35.55409         8.86886
     2015.55373       -36.58719         8.99137
     2015.55646       -40.45529         8.97690
     2015.55886       -31.59650         9.17079
     2015.56293       -56.55094        39.86452
     2015.56468       -31.68859         8.91516
     2015.56741       -36.77769         9.04442
     2015.57015       -45.90179         9.11580
     2015.57289       -48.67589         8.89972
     2015.57563       -33.93598         9.07722
     2015.57837        10.22492        37.54843
     2015.58110       -41.36018         9.06275
     2015.58384       -38.28128         9.02995
     2015.58658       -18.49638         9.43992
     2015.58932       -44.38648         9.24892
     2015.59206       -45.82458         8.91323
     2015.59479       -32.29468         8.97979
     2015.59753       -37.23378         9.00294
     2015.60027       -32.01287         9.40423
     2015.60301       -44.59397         9.00294
     2015.60574       -32.50307         9.01548
     2015.60848       -27.92417         9.08011
     2015.61122       -39.40727         9.21323
     2015.61396       -52.96337         9.82192
     2015.61943       -36.35357         9.30294
     2015.62217       -32.23266         9.77947
     2015.62491       -30.90376         8.93445
     2015.62765       -43.12286         9.06757
     2015.63039       -51.15396        10.06211
     2015.63312       -34.24106         9.22577
     2015.63586       -17.71416         9.09265
     2015.63860       -34.77326         9.24313
     2015.64134       -31.33836         9.54507
     2015.64407       -40.46746         8.91419
     2015.64681       -37.88255         9.34442
     2015.64955       -40.90265         9.03670
     2015.65229       -37.33775        10.10262
     2015.65503       -19.84285         9.78719
     2015.65776       -39.60495         9.29137
     2015.66050       -41.98105         8.68172
     2015.66324       -37.98015         9.10230
     2015.66598       -25.51425         8.64699
     2015.66872       -32.69634         8.72802
     2015.67145       -32.88844         8.91998
     2015.67419       -42.78154         8.68654
     2015.67693       -46.48164         8.81387
     2015.67967       -41.36774         8.68268
     2015.68240       -30.63784         8.60358
     2015.68514       -38.59194         9.91934
     2015.68788       -37.48904         9.58462
     2015.69062       -45.11214         8.66050
     2015.69336       -39.45323         9.98012
     2015.69609       -29.68833         8.63541
     2015.69883       -37.11143         8.75310
     2015.70157       -43.92253         8.71066
     2015.70431       -42.31063         8.65664
     2015.70705       -39.50473         8.53606
     2015.70978       -45.40483         8.59201
     2015.71252       -37.11293         8.78011
     2015.71526       -32.15002         9.11002
     2015.71800       -48.30312         8.94506
     2015.72073       -43.16022         8.83220
     2015.72347       -51.31232         8.75406
     2015.72621       -50.00242         8.86982
     2015.72895       -33.19552         8.81194
     2015.73169       -40.42762         8.69426
     2015.73442       -56.82472         8.65857
     2015.73716       -35.90082         8.55342
     2015.73990       -40.97591         8.73670
     2015.74264       -39.14301         8.70101
     2015.74538       -45.04711         8.69812
     2015.74811       -42.10521         8.79169
     2015.75085       -45.41731         9.11002
     2015.75359       -41.66541         8.64795
     2015.75633       -52.83351         8.67882
     2015.75906       -44.58161         8.83799
     2015.76180       -52.08570         8.59394
     2015.76454       -47.27580         9.40809
     2015.76728       -43.99990         8.63638
     2015.77002       -36.22300         8.62963
     2015.77275       -44.35610         8.96243
     2015.77549       -49.86320         8.81773
     2015.77823       -31.30030         9.13124
     2015.78097       -35.04840         8.84860
     2015.78371       -39.65750         8.71644
     2015.78644       -44.39659         8.83316
     2015.78918       -28.50369         8.91709
     2015.79192       -42.65779         8.63252
     2015.79466       -38.56089         9.45343
     2015.79739       -38.63499         8.78300
     2015.80013       -44.69109         9.31066
     2015.80287       -44.36019         9.02609
     2015.80561       -37.73529         8.92288
     2015.80835       -39.90239         8.60648
     2015.81108       -57.23848         8.65471
     2015.81382       -56.84758         8.66146
     2015.81656       -59.36268         8.74828
     2015.81930       -52.64978         8.75310
     2015.82203       -35.77488         8.96628
     2015.82477       -44.88298         8.65664
     2015.82751       -46.54008         8.97690
     2015.83025       -40.05318         8.91130
     2015.83299       -48.63227         8.87464
     2015.83572       -53.71737         8.93349
     2015.83846       -55.50547         9.43896
     2015.84120       -45.31757         9.48912
     2015.84394       -50.86067         9.00487
     2015.84668       -47.15777         9.74860
     2015.84929       -25.92219        14.48303
     2015.85239       -45.96330        11.91517
     2015.85489       -61.27307         9.32127
     2015.85797       -42.37808        10.56179
     2015.86036       -38.78226        12.38785
     2015.86310       -39.68636         9.12738
     2015.86584       -46.11646        11.06533
     2015.86858       -47.17556         9.55568
     2015.87132       -40.73966        12.49396
     2015.87404       -38.93268         9.33092
     2015.87673       -55.81554        18.50846
     2015.87963       -50.99251        10.09587
     2015.88227       -54.83005         9.08493
     2015.88501       -61.10815         9.16403
     2015.88774       -43.94225         9.29137
     2015.89048       -53.38735         9.24313
     2015.89322       -53.14145         9.34442
     2015.89596       -58.68255         9.39651
     2015.89869       -62.99765         9.27497
     2015.90143       -61.86575         9.36371
     2015.90417       -53.65184         9.35696
     2015.90691       -60.66894         9.44185
     2015.90868       -43.72369        29.75128
     2015.91323       -57.51581        11.77241
     2015.91512       -64.31624         9.22191
     2015.91786       -67.94234         9.66757
     2015.92060       -46.26244         9.49683
     2015.92334       -59.72254         9.99941
     2015.92607       -44.92363         9.26725
     2015.92881       -55.64473         9.34635
     2015.93155       -45.37783         9.11677
     2015.93429       -43.89493        10.15761
     2015.93702       -38.28903         9.21998
     2015.93976       -54.84613        10.12192
     2015.94250       -50.89123         9.72738
     2015.94524       -50.94933         9.26146
     2015.94798       -49.96843         9.00583
     2015.95071       -42.92152         9.24699
     2015.95345       -55.67162         9.36082
     2015.95619       -49.30072         9.74860
     2015.95893       -72.56282         9.87979
     2015.96167       -44.85792         9.11773
     2015.96440       -43.62302         9.06371
     2015.96714       -49.91612         9.77175
     2015.96988       -49.25022         9.80262
     2015.97262       -49.40432         9.00873
     2015.97535       -50.44141         8.98365
     2015.97809       -48.35851         8.88526
     2015.98083       -68.49561         9.00101
     2015.98357       -73.46271         9.29233
     2015.98631       -56.06681         9.33863
     2015.98904       -62.31491         8.97304
     2015.99178       -55.90501         9.29426
     2015.99452       -59.34311         9.03284
     2015.99714       -63.78458         9.47947
     2016.00273       -57.28240         9.17657
     2016.00547       -58.72750         9.12256
     2016.00821       -49.80760         9.30873
     2016.01095       -56.54970         9.26725
     2016.01368       -63.48680         9.27690
     2016.01642       -60.95690         9.12834
     2016.01916       -59.63200         9.01645
     2016.02190       -53.06809         9.16886
     2016.02464       -50.68319         9.26532
     2016.02737       -64.43729         9.47465
     2016.03011       -51.66239         9.74571
     2016.03285       -49.98849         9.16693
     2016.03559       -56.84359         8.94989
     2016.03833       -58.12069        10.53285
     2016.04095       -49.15616         9.58462
     2016.04733       -55.31333        11.49170
     2016.04928       -59.25808         9.15439
     2016.05201       -50.52318        10.84443
     2016.05475       -52.15628         9.41580
     2016.05749       -63.32438         9.03670
     2016.06023       -57.10848         9.15632
     2016.06297       -58.25658         9.09072
     2016.06570       -48.82168        10.10359
     2016.06844       -40.03577        10.02642
     2016.07118       -47.66787        10.06500
     2016.07392       -38.68697        10.36404
     2016.07666       -49.75907         9.97626
     2016.07939       -45.61317         9.93188
     2016.08213       -48.04227        10.31870
     2016.08487       -51.36637        10.10359
     2016.08761       -66.19147        10.06211
     2016.09040       -53.74388         9.88751
     2016.09308       -61.34666        10.29845
     2016.09582       -50.53976        10.26179
     2016.09856       -57.00486        10.16147
     2016.10130       -75.59396        10.03703
     2016.10403       -40.47306        10.48559
     2016.10677       -53.68716        10.34957
     2016.10951       -63.98026        10.29555
     2016.11225       -54.20336        10.33317
     2016.11498       -48.75445        10.18944
     2016.11772       -59.86355         9.94346
     2016.12046       -36.81465        11.14443
     2016.12320       -60.37075        10.48269
     2016.12594       -67.93585        10.39973
     2016.12867       -52.58695        10.03799
     2016.13141       -59.48705        10.03510
     2016.13415       -44.07715         9.96179
     2016.13689       -54.46724        10.44796
     2016.13963       -52.99134        10.18558
     2016.14236       -65.90344        10.39684
     2016.14510       -62.26254        10.06597
     2016.14784       -51.44864        10.11709
     2016.15058       -56.83774        10.27240
     2016.15331       -58.82584        10.75472
     2016.15605       -61.08194        10.07851
     2016.15879       -49.02404        10.73253
     2016.16153       -48.78713        11.01035
     2016.16427       -58.48323        10.62449
     2016.16700       -54.79833        10.14700
     2016.16974       -62.87343        10.33221
     2016.17248       -55.54553        10.13349
     2016.17522       -47.33463        10.19041
     2016.17796       -48.78473        10.25986
     2016.18069       -57.62783        10.60134
     2016.18343       -59.06293        10.61581
     2016.18617       -59.43202         9.92320
     2016.18891       -33.41212        10.57337
     2016.19164       -47.90822        10.41806
     2016.19438       -50.13832        10.16050
     2016.19712       -60.65942        12.90489
     2016.19986       -56.55552        10.00230
     2016.20260       -68.22462        10.34861
     2016.20533       -58.77172        10.28301
     2016.20807       -59.61181        10.17015
     2016.21081       -48.85991         9.95311
     2016.21355       -64.95601        10.06307
     2016.21629       -61.27311        10.27337
     2016.21902       -43.88721        10.49523
     2016.22176       -51.25931        10.08912
     2016.22450       -72.54641        13.31100
     2016.22724       -49.26951         9.99266
     2016.22997       -54.89461        10.13349
     2016.23271       -71.39370        15.55571
     2016.23545       -50.88180        10.01967
     2016.23819       -65.33690        10.24636
     2016.24093       -66.75000        10.74797
     2016.24366       -50.07810        10.41613
     2016.24640       -51.89120        10.19330
     2016.24914       -57.81230        10.17401
     2016.25188       -44.10440        10.40841
     2016.25462       -65.32349        10.20873
     2016.25735       -54.88659         9.78912
     2016.26009       -44.60569        10.50584
     2016.26283       -55.91879        10.57915
     2016.26557       -60.54889        10.42674
     2016.26830       -39.01699         9.97626
     2016.27104       -63.61309        10.56661
     2016.27378       -42.84119        10.08623
     2016.27652       -53.11729        10.87337
     2016.27926       -51.23338        10.55311
     2016.28199       -65.08548        10.41903
     2016.28473       -53.43258        10.14796
     2016.28747       -61.34768        10.09394
     2016.29021       -62.14878        10.42385
     2016.29295       -66.03688        10.11324
     2016.29568       -51.79398        10.25986
     2016.29842       -62.67808        11.36630
     2016.30116       -62.48317        11.52739
     2016.30390       -53.95327        11.06726
     2016.30663       -49.35337        10.25118
     2016.30937       -61.12147        10.45375
     2016.31211       -59.20157        10.17497
     2016.31485       -58.81367        10.06983
     2016.31759       -54.93677        10.18172
     2016.32032       -57.02987        10.66211
     2016.32306       -61.87897        10.12963
     2016.32580       -66.12506        10.38816
     2016.32854       -73.05916        10.62739
     2016.33128       -54.21726        10.19234
     2016.33401       -37.55536        11.12417
     2016.33675       -56.54846        10.78752
     2016.33949       -45.82456        10.26275
     2016.34223       -64.76066        10.50102
     2016.34496       -61.47276        10.72481
     2016.34770       -34.52086        11.26212
     2016.35044       -45.92595        12.02128
     2016.35318       -61.09205        10.01870
     2016.35592       -58.37215        10.20681
     2016.35865       -68.96125        10.59652
     2016.36139       -62.75135        10.35729
     2016.36413       -38.71545        10.17304
     2016.36687       -29.71655        10.39105
     2016.36961       -36.68665        10.57530
     2016.37234       -33.07974        10.21549
     2016.37508       -41.49284        10.86855
     2016.37782       -49.66894        10.04378
     2016.38055       -40.89399        10.17111
     2016.38329       -46.98814        10.07176
     2016.38603       -43.55224        10.35150
     2016.38877       -39.23034        10.64957
     2016.39151       -40.30544        10.35825
     2016.39425       -36.38054        10.59073
     2016.39698       -32.68163        10.50391
     2016.39972       -44.37073        10.19523
     2016.40246       -51.50783        10.55600
     2016.40520       -46.57293        10.10070
     2016.40794       -52.31303        10.56951
     2016.41067       -47.96813        10.53575
     2016.41341       -55.72523        10.22996
     2016.41615       -50.64933        10.60809
     2016.41889       -50.50242        10.31484
     2016.42162       -41.24252        10.38237
     2016.42436       -51.90762        10.15086
     2016.42710       -51.07272        10.25890
     2016.42984       -39.18482        11.45890
     2016.43258       -47.55892        10.23767
     2016.43531       -38.37202        10.39009
     2016.43805       -40.48612        10.30423
     2016.44079       -45.22422         9.98687
     2016.44353       -51.65531        10.11709
     2016.44626       -29.54841        10.14025
     2016.44900       -47.88351        10.06018
     2016.45174       -51.65961        10.19619
     2016.45448       -48.51671        10.04957
     2016.45722       -53.33981        10.04957
     2016.45995       -42.29891         9.96179
     2016.46269       -42.34301        10.15472
     2016.46543       -52.91610        10.22513
     2016.46817       -49.98720         9.93574
     2016.47091       -45.09430        10.81067
     2016.47364       -48.09040         9.85086
     2016.47638       -43.63450         9.96179
     2016.47912       -45.07260        10.41131
     2016.48186       -50.93470        10.17208
     2016.48457       -37.10467         9.94925
     2016.48733       -46.38490        10.28108
     2016.49007       -49.94099        10.46533
     2016.49281       -39.45109        10.46629
     2016.49555       -43.04619        10.13253
     2016.49737       -28.53526        15.32805
     2016.50752       -65.51522        30.08601
     2016.50924       -37.68769         9.85568
     2016.51197       -41.95478         9.90102
     2016.51471       -34.11688        10.43735
     2016.51745       -42.08398        10.07176
     2016.52019       -55.28608        10.61581
     2016.52292       -39.36518        10.25311
     2016.52566       -46.63728        10.78173
     2016.52840       -40.90238        10.05053
     2016.53114       -50.13548        10.16726
     2016.53388       -49.26258        10.34378
     2016.53661       -23.06267        11.30167
     2016.53935       -40.35677        10.24732
     2016.54112        -0.81752        17.89302
     2016.54571       -79.86682        24.62135
     2016.54757       -28.96907        10.39298
     2016.55030       -33.65417        12.04058
     2016.55304       -33.52327        10.12095
     2016.55572       -38.80305        10.08816
     2016.55830       -22.11526        10.47497
     2016.56486       -37.08746        22.88694
     2016.56673       -41.66376        10.33703
     2016.56947       -38.46186        10.34185
     2016.57221       -43.07996        10.44121
     2016.57494       -52.11606        10.78269
     2016.57768       -43.42416        10.01581
     2016.58316       -39.46735        10.05150
     2016.58590       -48.07445        10.48076
     2016.58863       -44.25255        10.63028
     2016.59137       -41.58265        10.50102
     2016.59411       -34.38375        10.68623
     2016.59685       -33.94785        10.52899
     2016.59958       -43.37495        10.46147
     2016.60232       -52.43705        11.16276
     2016.60506       -55.84315        11.03253
     2016.60780       -42.62524        10.48173
     2016.61054       -31.73034        10.71903
     2016.61327       -34.04044        11.00359
     2016.61601       -40.94654        10.38237
     2016.61875       -50.14464        10.47112
     2016.62149       -52.26974        10.52224
     2016.62423       -31.15184        10.81645
     2016.62696       -30.26594        10.43446
     2016.62970       -46.66003        10.07947
     2016.63244       -36.62313        10.16436
     2016.63518       -35.06523        10.40456
     2016.63791       -52.36733         9.98880
     2016.64065       -26.91243         9.88365
     2016.64339       -36.87253        10.19619
     2016.64613       -32.14563        10.74990
     2016.64887       -34.64373        10.46629
     2016.65052         1.65915        33.04647
     2016.66086        19.92911        21.40140
     2016.66256       -34.66022        10.82417
     2016.66529       -37.93132         9.94828
     2016.66803       -39.44342        10.26758
     2016.67077       -53.51352        10.03992
     2016.67351       -42.88262        10.11806
     2016.67624       -29.25771        10.16436
     2016.67898       -21.57581        10.42578
     2016.68446       -37.73001        10.08719
     2016.68720       -40.70211        10.57723
     2016.68993       -32.94821        11.35569
     2016.69267       -59.84231        11.17916
     2016.69541       -49.51441        10.01967
     2016.69763       -50.82167        13.09299
     2016.70183       -31.85382        18.22099
     2016.70635       -58.68172        11.63350
     2016.70910       -25.50290        11.03832
     2016.71184       -35.78500        10.20873
     2016.71457       -33.46610        10.21838
     2016.71731       -41.54620        11.28913
     2016.72005       -56.87130        10.67176
     2016.72279       -45.33740        10.39394
     2016.72553       -46.92749        11.57080
     2016.72821       -65.12928        12.24412
     2016.73101       -43.87072        10.32063
     2016.73374       -26.96779        10.22031
     2016.73648       -49.30089        10.31484
     2016.73921       -51.96699        10.21356
     2016.74195       -53.96109         9.87208
     2016.74469       -46.07919         9.90198
     2016.74743       -45.25828        10.50102
     2016.75017       -44.95538        10.01870
     2016.75290       -55.81948        10.00423
     2016.75563       -45.47550         9.90487
     2016.75838       -35.26868        10.27529
     2016.76112       -36.01178         9.99362
     2016.76386       -50.06788        10.03799
     2016.76659       -47.86498         9.99651
     2016.76933       -44.23308        10.36018
     2016.77207       -42.35917         9.68976
     2016.77481       -42.46327        10.19330
     2016.77754       -37.05337        10.08623
     2016.78028       -49.84847         9.94925
     2016.78302       -45.23457        10.90231
     2016.78576       -49.74667         9.80938
     2016.78850       -35.48177        10.24636
     2016.79123       -34.16987        10.01677
     2016.79397       -39.09896         9.80938
     2016.79671       -39.82406        10.03317
     2016.79939       -51.93985        10.32738
     2016.80219       -37.19426        14.88818
     2016.80492       -38.63036         9.92031
     2016.80766       -43.03546         9.84507
     2016.81040       -40.43056        10.13542
     2016.81314       -38.30566        10.72578
     2016.81587       -52.61276         9.79876
     2016.81861       -50.35485        10.19716
     2016.82135       -46.92895        10.25793
     2016.82409       -39.35105        10.27047
     2016.82956       -34.73425        10.41517
     2016.83230       -41.94035         9.92803
     2016.83504       -37.47845         9.82963
     2016.83778       -54.13055        10.03028
     2016.84052       -28.41364        10.32835
     2016.84325       -38.67274         9.72159
     2016.84599       -37.35884         9.83060
     2016.84873       -31.81394        10.05632
     2016.85147       -35.02404         9.92899
     2016.85420       -46.06214         9.89426
     2016.85694       -41.38124        10.08526
     2016.85968       -47.85934         9.84217
     2016.86242       -46.71344         9.71291
     2016.86516       -35.28153        10.33510
     2016.87063       -49.09873         9.90198
     2016.87337       -44.05083         9.88848
     2016.87611       -41.91593         9.94925
     2016.87885       -46.36803         9.93092
     2016.88158       -54.02213         9.83735
     2016.88432       -48.67623        10.10359
     2016.88706       -44.14633        10.04089
     2016.88980       -44.71842         9.87594
     2016.89253       -48.01052         9.91452
     2016.89527       -52.00262         9.98687
     2016.89801       -36.42872        10.34571
     2016.90075       -43.18882         9.95889
     2016.90349       -38.56192        10.11324
     2016.90622       -42.29002         9.65600
     2016.90896       -43.73412         9.77754
     2016.91170       -34.56621         9.87401
     2016.91444       -37.85131        10.04861
     2016.91718       -43.65041         9.98783
     2016.91991       -40.52851         9.75150
     2016.92265       -39.21861        10.05150
     2016.92539       -40.77871         9.72159
     2016.92813       -50.12981        10.03799
     2016.93086       -54.45191        10.00327
     2016.93360       -46.15701        10.25697
     2016.93634       -56.38210        10.06886
     2016.93908       -62.57120        10.04668
     2016.94182       -51.12030         9.95021
     2016.94455       -52.93640         9.96275
     2016.94729       -39.95550        10.25214
     2016.95003       -38.05660        11.13286
     2016.95277       -51.96070        10.40456
     2016.95551       -58.79880         9.96758
     2016.95824       -46.11289        10.04282
     2016.96001       -44.82765        22.38533
     2016.96749       -59.85488        18.79013
     2016.96919       -41.53029         9.92031
     2016.97188       -56.24707        10.30134
     2016.97468       -40.89854        10.02545
     2016.97741       -45.91359         9.90487
     2016.98015       -52.94069         9.78237
     2016.98288       -55.65878         9.77079
     2016.98562       -45.69888         9.87883
     2016.98836       -44.98298         9.84314
     2016.99110       -42.43708        10.00037
     2016.99384       -49.03118        10.11034
     2016.99657       -45.66228        10.05536
     2016.99931       -65.43938        10.35054
     2017.00480       -57.61765        10.01195
     2017.00752       -66.67465        12.29235
     2017.01032       -71.09609        18.88852
     2017.01300       -61.26687         9.71098
     2017.01574       -52.59397         9.82867
     2017.01848       -56.88607         9.79008
     2017.02121       -58.65117         9.92031
     2017.02395       -55.15027         9.91356
     2017.02669       -61.61637         9.88655
     2017.02943       -57.24946         9.83060
     2017.03216       -59.37656         9.63188
     2017.03490       -53.98266        10.16629
     2017.03764       -54.85976         9.87979
     2017.04038       -59.27686        10.10648
     2017.04312       -47.46696         9.88655
     2017.04585       -57.63906        10.49909
     2017.04859       -47.81016        10.52417
     2017.05133       -43.12425         9.67433
     2017.05401       -35.47504        10.00809
     2017.05681       -51.50548         9.60970
     2017.05954       -49.29355        10.89652
     2017.06228       -58.00465         9.65407
     2017.06502       -64.32575         9.87690
     2017.06776       -56.75585         9.79973
     2017.07049       -56.37595        10.17883
     2017.07323       -45.27205         9.70423
     2017.07597       -48.12214         9.84410
     2017.07871       -57.39324         9.88751
     2017.08145       -65.12834        10.10070
     2017.08418       -65.14244         9.77368
     2017.08692       -58.40354         9.84217
     2017.08966       -55.98564        10.09394
     2017.09240       -58.72674         9.87883
     2017.09514       -64.15084         9.86532
     2017.09787       -47.46594        10.25600
     2017.10062       -59.19806         9.65600
     2017.10335       -63.56013         9.79587
     2017.10609       -64.11123        10.42385
     2017.10882       -52.66933         9.82770
     2017.11156       -51.33743         9.80359
     2017.11430       -52.47553         9.78237
     2017.11704       -63.23663         9.71677
     2017.11978       -55.58173         9.89426
     2017.12251       -53.63282        10.24057
     2017.12525       -42.00392        10.89748
     2017.12799       -43.25302        10.09394
     2017.13073       -57.48512         9.79491
     2017.13347       -54.41222         9.84603
     2017.13620       -52.28332         9.80552
     2017.13894       -42.27342        10.24250
     2017.14168       -53.38452        10.04282
     2017.14442       -58.87462        10.08526
     2017.14715       -54.02571        10.02545
     2017.14989       -47.59381         9.95986
     2017.15263       -52.78491        10.11902
     2017.15537       -48.73501        10.13349
     2017.15811       -54.11711        16.42291
     2017.16084       -46.94121        10.20005
     2017.16358       -60.79931         9.75150
     2017.16632       -47.15541        10.24250
     2017.16906       -52.48250        10.18944
     2017.17180       -53.50960         9.88848
     2017.17453       -53.85070        10.05053
     2017.17727       -47.61180         9.87401
     2017.18001       -47.13090        10.16629
     2017.18275       -55.63900        10.01870
     2017.18548       -65.01310         9.85857
     2017.18822       -58.94920        10.27047
     2017.19096       -52.54430        10.05343
     2017.19370       -45.29839         9.70905
     2017.19644       -64.38749         9.70809
     2017.19917       -39.81459        10.32546
     2017.20191       -57.10269         9.97336
     2017.20465       -45.36079        11.27273
     2017.20739       -46.14489        10.14314
     2017.21013       -47.67199         9.83542
     2017.21286       -58.91609         9.73992
     2017.21560       -55.84718         9.97626
     2017.21834       -64.70928         9.80359
     2017.22108       -45.09938        10.02449
     2017.22381       -46.60448        10.27433
     2017.22655       -56.01558         9.91163
     2017.22929       -57.25068        10.26565
     2017.23203       -57.64778        19.29753
     2017.23477       -61.39988        10.16533
     2017.23800       -57.40970        11.09813
     2017.24024       -64.42807         9.90873
     2017.24298       -68.70317         9.98687
     2017.24572       -51.67827         9.99941
     2017.24846       -67.89237         9.83735
     2017.25119       -60.77047        10.02449
     2017.25393       -68.14057        12.72740
     2017.25667       -59.80967        11.85054
     2017.25941       -50.07777         9.94346
     2017.26214       -46.98287        10.21066
     2017.26488       -47.92996        10.34764
     2017.26762       -48.78106        10.11613
     2017.27036       -58.65016        10.05729
     2017.27310       -74.20826        10.43542
     2017.27583       -60.97436        10.08140
     2017.27857       -45.61246        10.49041
     2017.28131       -64.49756        10.38333
     2017.28405       -66.05166        10.06500
     2017.28679       -59.68875        10.32063
     2017.28952       -68.36585        10.25311
     2017.29226       -55.83195        10.00134
     2017.29500       -64.43005        10.16340
     2017.29774       -57.14415         9.89041
     2017.30047       -62.12525        10.22513
     2017.30321       -53.57635        10.36597
     2017.30595       -59.11445        10.45086
     2017.30869       -63.23755        10.20198
     2017.31143       -55.00264        10.07369
     2017.31416       -51.54074        10.42385
     2017.31690       -51.22984        10.02931
     2017.31964       -61.20294         9.95696
     2017.32238       -62.89004        10.43832
     2017.32514       -74.59727         9.95021
     2017.32694       -59.13320        19.62647
     2017.33181       -17.75005        98.58862
     2017.33333       -61.84243        10.18944
     2017.33607       -68.58153        10.57915
     2017.33880       -54.94063        10.13349
     2017.34154       -44.34973        10.94089
     2017.34428       -51.70183        10.32835
     2017.34702       -50.66193        10.00134
     2017.34970       -61.27271        10.03799
     2017.35249       -46.69113        23.51298
     2017.35523       -60.18423        10.05825
     2017.35797       -52.62832         9.92610
     2017.36071       -50.54042        10.06307
     2017.36344       -55.95852        10.28783
     2017.36618       -48.80962        10.37562
     2017.36892       -50.34672         9.91356
     2017.37166       -52.14482         9.91356
     2017.37440       -47.72992        10.22031
     2017.38073       -68.21786        21.98018
     2017.38261       -55.53921        10.22803
     2017.38535       -53.54531        10.27240
     2017.38729        -5.47401        15.28561
     2017.39171       -93.92739        23.84096
     2017.39356       -63.15161        10.18076
     2017.39630       -66.72571        10.25600
     2017.39904       -43.92381         9.73896
     2017.40177       -51.01891        10.22513
     2017.40434       -42.99506        16.65636
     2017.40689       -60.26714        48.73337
     2017.40982       -79.76326        27.04837
     2017.41274       -45.31735        10.14507
     2017.41546       -47.02940         9.91838
     2017.41820       -40.61450        10.77883
     2017.42094       -59.50360        10.23285
     2017.42368       -66.96770        10.13639
     2017.42642       -49.61779        10.17980
     2017.42915       -45.49289         9.82095
     2017.43189       -42.97399        10.57626
     2017.43463       -53.31409        10.29941
     2017.43737       -46.71919         9.89137
     2017.44010       -47.66929         9.81709
     2017.44284       -45.69739         9.85182
     2017.44558       -49.14949         9.92320
     2017.44832       -56.69759         9.96179
     2017.45106       -37.72168        10.36211
     2017.45379       -24.15478        12.67434
     2017.45653       -29.72488         9.84700
     2017.45927       -52.43298         9.86243
     2017.46201       -53.93808        10.36790
     2017.46475       -26.33318        11.01035
     2017.46748       -68.29128        23.29498
     2017.47022       -46.97238        10.33800
     2017.47296       -53.12748         9.95311
     2017.47570       -52.52057        10.14121
     2017.47843       -50.39667        10.55214
     2017.48117       -39.31577        10.63028
     2017.48391       -38.91087        10.35150
     2017.48665       -43.44697        10.22513
     2017.48939       -39.62207        10.35825
     2017.49212       -49.02017        10.41131
     2017.49486       -26.21127        11.10488
     2017.49760       -37.62836        10.17401
     2017.50034       -46.12146        10.29941
     2017.50308       -40.54056        10.20198
     2017.50581       -45.64766        10.47112
     2017.50855       -39.17976        10.75858
     2017.51129       -47.41786        10.50777
     2017.51403       -54.94196        10.22224
     2017.51676       -52.41406        10.11902
     2017.51950       -39.10416        10.64764
     2017.52224       -33.16325        10.57047
     2017.52458       -51.31915        10.86758
     2017.53045       -33.17255        10.37851
     2017.53319       -46.85865        10.29652
     2017.53490       -28.67509        17.57565
     2017.54234       -45.31808        36.41884
     2017.54414       -43.64404        10.29748
     2017.54688       -44.03814        10.95536
     2017.54962       -41.75524        10.61967
     2017.55236       -33.11434        10.77980
     2017.55509       -44.30944        10.64861
     2017.55783       -30.64554        10.52321
     2017.56057       -40.96164        10.39780
     2017.56331       -32.72874        10.75954
     2017.56605       -52.21084        10.66404
     2017.56878       -43.87193        10.44700
     2017.57152       -38.41403        10.68719
     2017.57426       -32.88213        10.80970
     2017.57700       -40.92123        10.64475
     2017.57974       -50.32833        10.49137
     2017.58247       -49.20843        11.13286
     2017.58521       -48.02553        10.40070
     2017.58795       -53.76863        10.43446
     2017.59069       -51.01172        10.50874
     2017.59342       -53.24582        10.47594
     2017.59616       -36.61492        10.63414
     2017.59890       -36.39002        10.37562
     2017.60164       -34.92112        11.00456
     2017.60438       -50.26722        10.53864
     2017.60711       -37.84032        10.90713
     2017.60985       -35.93642        12.06276
     2017.61259       -27.43652        10.68816
     2017.61533       -47.12961        10.37851
     2017.61807       -34.20671        10.29941
     2017.62080       -20.76981        10.64089
     2017.62354       -41.03191        10.17208
     2017.62628       -25.75401        10.37369
     2017.62902       -25.26411        10.34861
     2017.63175       -35.18321        10.06693
     2017.63449       -49.47231        10.18751
     2017.63723       -40.78141        10.57433
     2017.63997       -38.84950        10.92353
     2017.64271       -49.41260        10.17497
     2017.64544       -42.95070        10.18076
     2017.64818       -40.60980        14.67596
     2017.65092       -50.63190        10.52803
     2017.65269       -58.60965        17.59495
     2017.65749       -57.17813        19.25605
     2017.65913       -29.22920        10.66597
     2017.66187       -41.06329        10.43639
     2017.66461       -30.22539        10.64957
     2017.66735       -38.36749        10.33221
     2017.67008       -31.12359        10.56372
     2017.67282       -33.18669        10.27240
     2017.67556       -38.21979        10.63028
     2017.67830       -55.79989        10.02835
     2017.68104       -34.55799        10.83092
     2017.68377       -23.95106        12.13704
     2017.68653       -36.81626        11.02675
     2017.68925       -43.66528        10.39202
     2017.69199       -44.07138        10.16340
     2017.69472       -52.93348        11.87466
     2017.69746       -51.86358        10.31677
     2017.70020       -44.19368        10.45568
     2017.70294       -32.93678        10.19909
     2017.70568       -50.09988        10.41517
     2017.70841       -58.40397        10.17497
     2017.71115       -42.02507        10.61870
     2017.71389       -43.10217        10.10938
     2017.71663       -27.94327        10.46726
     2017.71937       -34.99937        10.28012
     2017.72210       -49.33447        10.03896
     2017.72484       -46.55857        10.20584
     2017.72758       -44.14867         9.98494
     2017.73020       -40.39714        15.00490
     2017.73311       -37.91018        11.84476
     2017.73579       -53.07296        10.68719
     2017.73853       -53.47106        10.81838
     2017.74138       -49.66079        12.04058
     2017.74401       -38.28426        10.15182
     2017.74669       -47.86004        10.41903
     2017.74971       -17.30772        64.98748
     2017.75496       -39.49765        12.98303
     2017.75770       -49.86275        12.10424
     2017.76043       -31.97185        38.45325
     2017.76317       -25.74795        10.68526
     2017.76591       -33.28805        10.10455
     2017.76865       -34.03315        10.13928
     2017.77138       -36.11225        10.30520
     2017.77412       -40.20435        10.46147
     2017.77686       -42.62545        10.63221
     2017.77960       -44.70654        10.03317
     2017.78234       -32.51864         9.78622
     2017.78507       -36.55174        10.29748
     2017.78781       -41.96884        10.16533
     2017.79055       -46.94794        10.49234
     2017.79329       -30.79504         9.97819
     2017.79603       -33.02114        10.01002
     2017.79871       -32.02192        11.39620
     2017.80150       -25.97033        12.85569
     2017.80424       -42.00543        10.21645
     2017.80698       -45.19153        10.31581
     2017.80971       -35.29763        10.41324
     2017.81245       -55.03473        10.36597
     2017.81519       -30.89183        10.10262
     2017.81793       -52.81793        10.24250
     2017.82067       -47.91203        10.08140
     2017.82340       -49.53113        10.52321
     2017.82512       -26.28456        22.84353
     2017.82998       -71.86838        35.78990
     2017.83162       -48.50142         9.94250
     2017.83436       -54.63452        10.31774
     2017.83709       -40.43762        10.16340
     2017.83983       -48.56472        13.11325
     2017.84257       -41.96382        10.12481
     2017.84531       -50.03792        10.11613
     2017.84804       -46.42002        10.42095
     2017.85078       -41.42211        10.06983
     2017.85352       -44.39421        10.12963
     2017.85626       -45.07231        10.91581
     2017.85900       -39.40441        10.87240
     2017.86173       -37.40851        10.30520
     2017.86447       -43.25561         9.86532
     2017.86647       -28.37762        15.32805
     2017.87097       -37.54747        17.28819
     2017.87269       -36.94790         9.99748
     2017.87542       -36.81700         9.84314
     2017.87816       -41.89110        10.01002
     2017.88090       -52.59120        10.07851
     2017.88364       -70.74330        10.14700
     2017.88637       -25.17440        10.12192
     2017.88911       -39.27850        10.02063
     2017.89185       -43.45960         9.85761
     2017.89459       -29.94570        10.17304
     2017.89733       -39.29379        10.07272
     2017.90006       -53.09789         9.84410
     2017.90280       -39.44499        10.02545
     2017.90554       -34.43609        15.86825
     2017.90828       -44.43119        10.01581
     2017.91102       -42.44529        11.07691
     2017.91375       -40.62639        10.90617
     2017.91649       -47.97249         9.86243
     2017.91923       -40.75458         9.98494
     2017.92197       -54.56368        10.13832
     2017.92470       -47.34578        10.11517
     2017.92744       -37.63088        10.38719
     2017.93018       -49.76898         9.96275
     2017.93292       -57.24408         9.93574
     2017.93566       -55.24418        10.03799
     2017.93839       -45.85828        10.26179
     2017.94113       -61.40938        10.47594
     2017.94387       -70.05047        10.15568
     2017.94661       -63.55257        10.23671
     2017.94935       -58.44467        10.39394
     2017.95208       -43.46177        11.68173
     2017.95482       -44.64687        10.01677
     2017.95756       -49.83097        10.16629
     2017.96030       -46.77507        10.24057
     2017.96303       -48.10117        10.03606
     2017.96577       -45.05726         9.96565
     2017.96851       -62.82336        10.23767
     2017.97125       -62.46046        10.19909
     2017.97399       -63.16456        10.32642
     2017.97672       -58.43266        10.33028
     2017.97946       -44.48376        10.13156
     2017.98220       -59.62486        10.08623
     2017.98494       -57.32196        10.14314
     2017.98767       -62.07606        10.07851
     2017.99041       -48.28115        10.50198
     2017.99315       -53.07325        10.34571
     2017.99589       -56.60935         9.77368
     2017.99766       -57.68610        26.37795
     2018.00457       -56.04024        11.50617
     2018.00684       -51.52875        10.11709
     2018.00958       -53.40085         9.92899
     2018.01232       -51.17295        10.22224
     2018.01505       -49.23704        10.11902
     2018.01779       -43.37114        10.15568
     2018.02053       -48.84424         9.93381
     2018.02327       -49.07234         9.92513
     2018.02600       -45.49944        10.29555
     2018.02874       -54.64254        10.00520
     2018.03148       -57.08264         9.91163
     2018.03422       -56.53274        10.05632
     2018.03696       -61.82983         9.95793
     2018.03969       -66.06293         9.84989
     2018.04243       -55.35403        10.33317
     2018.04517       -52.45313        10.43446
     2018.04791       -45.41723        10.07658
     2018.05065       -43.36933         9.99844
     2018.05338       -48.52643        10.27529
     2018.05612       -46.82753         9.89426
     2018.05886       -60.10863        10.08816
     2018.06160       -52.18572        10.28687
     2018.06433       -37.75582        10.86179
     2018.06707       -49.21792        10.79620
     2018.06981       -63.58302        10.63607
     2018.07255       -52.47312        10.49620
     2018.07529       -57.19122        10.55793
     2018.07802       -48.27932        10.72964
     2018.08076       -56.26142        10.47401
     2018.08350       -60.14951        10.53768
     2018.08624       -69.22161        10.66501
     2018.08898       -62.59971        10.66308
     2018.09171       -47.18381        11.01710
     2018.09445       -44.72691        11.44347
     2018.09719       -70.68001        24.83260
     2018.09993       -64.33811        10.78173
     2018.10266       -86.39421        10.84154
     2018.10540       -96.49231        11.39331
     2018.10814       -54.66740        11.10681
     2018.11088       -52.11850        10.96115
     2018.11362       -54.58460        11.13093
     2018.11635       -57.25670        10.77015
     2018.11909       -67.77280        10.64475
     2018.12183       -59.05090        10.81838
     2018.12457       -50.24400        11.21485
     2018.12731       -55.87110        10.93028
     2018.13004       -51.73619        11.12707
     2018.13278       -51.96129        10.94861
     2018.13552       -61.41739        10.97080
     2018.13826       -57.15249        10.65633
     2018.14099       -58.17659        11.26983
     2018.14373       -66.20469        10.73350
     2018.14647       -49.49779        11.37401
     2018.14921       -55.56089        10.73253
     2018.15195       -53.95299        11.09427
     2018.15468       -49.53808        10.72578
     2018.15742       -48.19018        10.60616
     2018.16016       -50.65028        10.73735
     2018.16290       -57.74338        11.39813
     2018.16564       -65.88948        11.49845
     2018.16837       -69.94658        10.55407
     2018.17111       -65.98768        10.41227
     2018.17385       -65.42878        10.40359
     2018.17659       -62.68288        10.61195
     2018.17932       -63.09797        10.76244
     2018.18206       -57.39507        11.15118
     2018.18480       -50.13817        11.05568
     2018.18754       -66.74927        10.33414
     2018.19028       -70.71637        10.82031
     2018.19301       -62.26347        10.75568
     2018.19575       -53.70157        11.04218
     2018.19849       -49.64067        10.56565
     2018.20123       -48.15676        11.48591
     2018.20397       -52.29586        10.63414
     2018.20670       -61.20796        10.72481
     2018.20944       -65.91506        11.14732
     2018.21218       -57.28816        10.98044
     2018.21492       -77.08826        10.96404
     2018.21765       -65.67136        10.00616
     2018.22039       -58.88646        10.06983
     2018.22313       -61.00256        10.06983
     2018.22587       -82.42965        10.19427
     2018.22861       -70.87375        10.07947
     2018.23134       -68.33485        10.00906
     2018.23408       -53.92795        10.22031
     2018.23682       -66.88705        10.00713
     2018.23956       -77.52615        10.16533
     2018.24230       -78.29425         9.90970
     2018.24503       -82.97135        10.13639
     2018.24777       -72.70944        10.32449
     2018.25051       -68.09354        10.11034
     2018.25325       -63.33064         9.95793
     2018.25598       -71.71974        10.01581
     2018.25872       -80.67984        10.28687
     2018.26146       -70.63394        10.24346
     2018.26420       -67.34304        10.16533
     2018.26694       -68.78714        10.02160
     2018.26967       -65.13024        10.34764
     2018.27241       -82.94333        11.50810
     2018.27464       -69.03760        13.65441
     2018.27795       -69.85087        13.99493
     2018.28062       -66.28463        10.08719
     2018.28336       -66.22973        10.08430
     2018.28610       -72.90583         9.98976
     2018.28884       -68.81193        10.15568
     2018.29158       -61.76303        10.51549
     2018.29431       -70.69612        10.06404
     2018.29705       -62.96922        10.14314
     2018.29979       -73.52132        10.33414
     2018.30247       -69.65411        10.39491
     2018.30527       -78.55255        10.23574
     2018.30800       -76.20462        10.28205
     2018.31074       -72.05372        10.68816
     2018.31348       -73.85182        10.38333
     2018.31622       -69.03192        10.23960
     2018.31895       -71.29401        11.47434
     2018.32169       -62.44011        10.35247
     2018.32443       -62.71321        10.38333
     2018.32717       -64.15231        10.32835
     2018.32991       -76.83541        10.17497
     2018.33264       -61.26751        10.27144
     2018.33538       -82.39861        11.15408
     2018.34095       -62.95130        10.30809
     2018.34360       -70.28590        10.21259
     2018.34633       -67.57700        10.11034
     2018.34907       -69.98510        10.21066
     2018.35181       -56.86320        10.74990
     2018.35455       -50.27230        10.33028
     2018.35728       -71.71840        10.32546
     2018.36002       -69.41950         9.98976
     2018.36276       -65.18860        10.88784
     2018.36550       -64.21769        10.16822
     2018.36824       -42.42179        10.95729
     2018.37097       -57.35789        10.17690
     2018.37371       -57.54399        10.10070
     2018.37645       -61.40309        10.79523
     2018.37919       -58.57919        10.34185
     2018.38193       -65.38029        10.18365
     2018.38466       -61.96839        10.61774
     2018.38740       -57.76449        10.31099
     2018.39014       -50.75558        10.24346
     2018.39288       -63.43568        10.49234
     2018.39561       -70.02878        10.18848
     2018.39835       -56.64588        10.32063
     2018.40109       -47.85998        10.38816
     2018.40383       -57.84608        16.51745
     2018.40657       -69.12918        10.06597
     2018.40930       -57.42228         9.92224
     2018.41204       -49.89537        10.44507
     2018.41478       -65.72947        10.23189
     2018.41752       -50.76357        11.10199
     2018.42026       -63.16167        10.59555
     2018.42299       -62.89377        10.06790
     2018.42573       -61.34787        10.04668
     2018.42847       -45.33697        10.01195
     2018.43121       -34.96507        10.06790
     2018.43394       -56.92717        10.12867
     2018.43668       -61.00726        10.17980
     2018.43942       -57.03836        10.30038
     2018.44216       -57.46846         9.98494
     2018.44490       -45.12856         9.88655
     2018.44763       -51.10566         9.96854
     2018.45037       -54.10376         9.87111
     2018.45311       -51.40886        10.17497
     2018.45585       -54.51796        10.34957
     2018.45859       -46.56505        10.01581
     2018.46132       -62.19415        10.32835
     2018.46406       -53.39025        10.02642
     2018.46680       -52.83035        10.20681
     2018.46954       -44.62545        10.45375
     2018.47227       -54.50355        10.90424
     2018.47501       -39.90065        10.65825
     2018.47775       -62.48975        10.17980
     2018.48048       -45.97082        10.43446
     2018.48323       -33.98594        10.33607
     2018.48596       -44.52404        10.04571
     2018.48870       -51.33114        10.17208
     2018.49144       -50.20424        10.06018
     2018.49418       -35.02034        10.68141
     2018.49692       -32.44844        10.81356
     2018.49965       -40.86454        10.23671
     2018.50239       -53.13764        10.08430
     2018.50513       -53.57773        10.50584
     2018.50787       -43.67083        10.33896
     2018.51060       -47.15993        10.59652
     2018.51334       -44.16903        10.93800
     2018.51608       -52.34213        10.29169
     2018.51882       -54.43723        10.20584
     2018.52156       -43.90433        10.42964
     2018.52429       -47.47443        10.38719
     2018.52703       -37.02253        10.86083
     2018.52977       -60.08362        10.38816
     2018.53251       -59.46572        10.39202
     2018.53525       -15.13282        10.82707
     2018.53798       -41.34392        15.40137
     2018.54072       -53.06902        10.34764
     2018.54346       -57.45412        11.63639
     2018.54620       -46.72022        10.09491
     2018.54893       -52.28632        10.17787
     2018.55167       -45.56242        10.35825
     2018.55441       -40.79251        10.40745
     2018.55715       -45.78661        10.44507
     2018.55989       -48.15871        11.58720
     2018.56262       -40.26481        10.91871
     2018.56536       -28.80591        10.82224
     2018.56810       -42.64101        10.31967
     2018.57084       -38.37111        10.29652
     2018.57357       -28.65721        10.25214
     2018.57631       -25.41530        10.33317
     2018.57905       -32.31840        11.89009
     2018.58179       -45.53650        10.38719
     2018.58453       -41.82760        10.64668
     2018.58726       -39.34470        10.19716
     2018.59000       -33.44980        10.09008
     2018.59274       -30.53090        10.28012
     2018.59548       -37.77000        10.45182
     2018.59822       -35.49610        10.47401
     2018.60095       -34.49719        10.14410
     2018.60369       -20.91829        10.55697
     2018.60643       -34.89439        10.79137
     2018.60917       -45.66149        10.21935
     2018.61190       -32.81059        11.01613
     2018.61464       -44.34269        10.06886
     2018.61738       -48.01479        10.75568
     2018.62012       -34.80889        10.84346
     2018.62286       -28.21598        10.71420
     2018.62559       -77.60308        10.10166
     2018.62833       -55.19418        10.11709
     2018.63107       -40.61028        10.05632
     2018.63381       -50.49338        11.41646
     2018.63655       -24.23048        10.41034
     2018.63928       -44.43758        10.89363
     2018.64202       -37.30768         9.92706
     2018.64476       -45.32278        10.29652
     2018.64750       -34.85887        10.10841
     2018.65023        -4.15897        15.33481
     2018.65297       -18.60607        10.96115
     2018.65571       -23.44717        10.69105
     2018.65845       -25.14927        10.33993
     2018.66119       -30.22837        10.35439
     2018.66392       -42.46647        10.82128
     2018.66666       -38.94957        10.21742
     2018.66940       -36.18666        10.28880
     2018.67214       -42.37776        10.32642
     2018.67488       -43.93286        11.70681
     2018.67761       -37.67896        10.41903
     2018.68035       -44.47306        10.36115
     2018.68309       -41.87516        10.89459
     2018.68583       -31.98726        10.28976
     2018.68856       -20.86036        10.26372
     2018.69130       -42.63946        10.30038
     2018.69404       -41.50355        10.63028
     2018.69678       -46.47065        10.97369
     2018.69952       -53.96975        10.25793
     2018.70225       -41.49285        10.66501
     2018.70499       -38.01895        10.28494
     2018.70773       -45.07905        10.17980
     2018.71047       -46.56415        10.24153
     2018.71321       -37.81325        10.50584
     2018.71594       -39.26434        10.34475
     2018.71868       -42.27444        10.49909
     2018.72142       -41.22154        10.35343
     2018.72416       -52.95564        10.47690
     2018.72689       -40.93474        10.63800
     2018.72963       -29.19684        10.44700
     2018.73237       -42.49194        10.29169
     2018.73511       -40.67804        10.41613
     2018.73785       -50.60814        10.07658
     2018.74058       -32.04823        10.57337
     2018.74332       -47.23033        10.20488
     2018.74606       -46.19943        10.51549
     2018.74880       -43.81753        10.31002
     2018.75154       -38.95763        10.34957
     2018.75427       -47.00473        10.25311
     2018.75701       -40.28883        10.40070
     2018.75975       -34.53293        10.30038
     2018.76249       -42.78303        10.21838
     2018.76522       -39.31512        10.07369
     2018.76796       -41.96422        10.05150
     2018.77070       -47.50932        10.12481
     2018.77344       -21.48742        12.49492
     2018.77618       -29.26652        10.22513
     2018.77891       -35.41862        10.41806
     2018.78165       -40.16772        10.26661
     2018.78439       -41.62482        10.55600
     2018.78713       -44.23791        10.35632
     2018.78987       -52.50001        10.35439
     2018.79260       -49.40611        10.23285
     2018.79534       -31.99521        10.71227
     2018.79808       -59.11331        10.35054
     2018.80082       -40.13141        10.21356
     2018.80355       -37.44151         9.97143
     2018.80629       -50.01361        10.53864
     2018.80903       -40.76171        10.33221
     2018.81145       -31.35007        12.32225
     2018.81506       -96.03194        28.69308
     2018.81724       -27.77800        10.11420
     2018.81998       -38.31110        10.02931
     2018.82272       -41.69520        10.08912
     2018.82546       -31.11730        10.26854
     2018.82820       -40.24640         9.89812
     2018.83093       -28.12050         9.99362
     2018.83367       -21.40659        10.38526
     2018.83641       -34.47969        10.22513
     2018.83915       -22.15079        10.18365
     2018.84188       -35.69389         9.87594
     2018.84462       -42.46199        10.36886
     2018.84736       -32.69609         9.96565
     2018.85010       -39.44819         9.96082
     2018.85284       -39.80729        10.60713
     2018.85557       -44.30439        10.52803
     2018.85831       -47.27048        10.26468
     2018.86105       -37.18658        10.08912
     2018.86379       -51.45568        10.74218
     2018.86653       -31.89278        10.17304
     2018.86926       -36.89788        10.11902
     2018.87200       -44.32898        10.00134
     2018.87474       -46.17008         9.93767
     2018.87748       -47.70218        10.74700
     2018.88021       -49.14027        10.62546
     2018.88295       -40.81537        10.87144
     2018.88569       -33.84347        11.02964
     2018.88843       -31.10457        10.94861
     2018.89117       -46.97267        10.53864
     2018.89390       -42.92177        10.52514
     2018.89664       -44.73087        10.67465
     2018.89938       -37.30097        11.01421
     2018.90212       -25.14407        11.25247
     2018.90485       -31.16816        10.66983
     2018.90759       -40.94626        10.25504
     2018.91033       -33.81536        10.42578
     2018.91307       -38.92346        10.68044
     2018.91581       -31.84256        11.42514
     2018.91854       -38.23666        10.58494
     2018.92128       -55.09576        10.67658
     2018.92402       -53.31786        10.65054
     2018.92676       -49.37996        10.29941
     2018.92950       -39.40105        10.68623
     2018.93223       -45.91615        10.72674
     2018.93497       -47.90925        10.94089
     2018.93771       -47.35435        10.96115
     2018.94045       -40.93245        10.34282
     2018.94318       -43.10755        10.14603
     2018.94592       -43.67565        10.03703
     2018.94866       -42.62775         9.94153
     2018.95140       -45.18084         9.94442
     2018.95414       -45.25194         9.74571
     2018.95687       -42.70904         9.63285
     2018.95961       -45.13214        10.07369
     2018.96235       -33.70624        10.27529
     2018.96509       -31.62834         9.92127
     2018.96783       -45.74144         9.87883
     2018.97056       -48.33254         9.93188
     2018.97330       -44.20764        10.17401
     2018.97604       -44.99773        10.05536
     2018.97878       -45.36883         9.81613
     2018.98151       -58.40993         9.89233
     2018.98425       -49.96503        10.38430
     2018.98699       -66.48113        10.33414
     2018.98973       -57.60423        10.12288
     2018.99247       -44.87733        10.38816
     2018.99520       -53.99043        10.18558
     2018.99794       -56.52652        10.19427
     2019.00068       -55.19762         9.97336
     2019.00342       -52.63872        10.21356
     2019.00616       -47.18482        10.49041
     2019.00889       -48.72092        10.08912
     2019.01163       -57.68202         9.97626
     2019.01437       -42.53012        10.06500
     2019.01711       -48.02922         9.97143
     2019.01984       -51.74432         9.87111
     2019.02258       -44.65741        10.35632
     2019.02532       -41.31251        10.23382
     2019.02806       -38.57061         9.87015
     2019.03005       -50.85262        19.69013
     2019.03901       -45.98901         9.64056
     2019.04061       -56.61081        24.33582
     2019.04819       -64.81465        17.76665
     2019.04945       -53.20357        13.81261
     2019.05914       -27.16205        25.25994
     2019.06091       -42.41280        10.56565
     2019.06365       -55.21090        10.42771
     2019.06639       -65.44300        10.38044
     2019.06913       -48.00709        10.84443
     2019.07186       -55.45519        10.59073
     2019.07460       -46.42129         9.98397
     2019.07734       -55.93039        10.38333
     2019.08008       -57.90449        10.45665
     2019.08282       -51.97459        11.06244
     2019.08555       -60.26569         9.88365
     2019.08829       -47.91879         9.91838
     2019.09103       -53.73889         9.79780
     2019.09377       -55.73098         9.85375
     2019.09650       -45.56008        10.11806
     2019.09924       -47.39218         9.90777
     2019.10198       -49.77028         9.87401
     2019.10472       -43.70138        10.55600
     2019.10746       -54.85848         9.88558
     2019.11019       -59.66258         9.87497
     2019.11293       -53.49568        10.29459
     2019.11567       -44.84577         9.80069
     2019.11841       -35.73587         9.72256
     2019.12115       -46.74797        10.29941
     2019.12388       -41.87907         9.80359
     2019.12662       -45.93917        10.27433
     2019.12936       -47.56727        10.22996
     2019.13210       -50.82437         9.72256
     2019.13483       -44.77647         9.76886
     2019.13757       -55.94757         9.75632
     2019.14031       -55.09666         9.80166
     2019.14305       -52.40576        10.25021
     2019.14579       -61.86886        10.21066
     2019.14852       -58.16296        10.22513
     2019.15126       -57.54206         9.96082
     2019.15400       -68.85616        10.46340
     2019.15674       -59.58926        10.41613
     2019.15948       -56.67036        10.09780
     2019.16212       -63.26493        10.88012
     2019.84496       -62.78873        18.72646
     2019.84668       -54.00216        10.67658
     2019.84941       -53.56626        10.58301
     2019.85215       -38.67636        10.51549
     2019.85489       -36.13946        10.35343
     2019.85763       -56.94956        10.70456
     2019.86036       -43.93566        10.69877
     2019.86310       -49.90576        10.67562
     2019.86584       -36.28785        10.41613
     2019.86858       -36.87995        10.44218
     2019.87132       -41.77405        10.60906
     2019.87405       -39.19615        10.95826
     2019.87679       -56.34225        10.83478
     2019.87953       -36.99635        10.88591
     2019.88227       -49.17645        10.63993
     2019.88501       -49.21555        11.42610
     2019.88774       -54.83165        12.69074
     2019.89048       -32.03074        10.75182
     2019.89322       -36.89284        10.95440
     2019.89596       -34.05194        10.56565
     2019.89869       -47.03404        10.58687
     2019.90143       -44.81014        10.53285
     2019.90417       -45.63224        10.98044
     2019.90691       -46.07034        10.83768
     2019.90965       -36.25344        10.89266
     2019.91238       -44.16153        10.37369
     2019.91512       -49.18063        10.53092
     2019.91786       -31.03073        10.08816
     2019.92060       -39.48983        10.66597
     2019.92334       -38.89093        10.52996
     2019.92607       -39.04603         9.99844
     2019.92877       -53.69692        10.41034
     2019.93155       -51.54423        10.12288
     2019.93429       -50.03633        10.30134
     2019.93702       -44.25142        10.33800
     2019.93976       -39.96452        10.72481
     2019.94250       -53.29462        10.14025
     2019.94524       -48.49972         9.97915
     2019.94798       -56.57182        10.09201
     2019.95071       -52.51992        10.02256
     2019.95345       -39.84002        10.07947
     2019.95619       -35.84412        10.45665
     2019.95893       -21.23921        10.77208
     2019.96167       -40.30031        10.00037
     2019.96440       -40.01141        10.82996
     2019.96714       -39.49951        11.20327
     2019.96988       -44.94964        10.21935
     2019.97262       -42.13774        10.13832
     2019.97535       -43.46181        10.20005
     2019.97809       -47.96491        10.07369
     2019.98083       -56.32701         9.94057
     2019.98357       -46.46910        10.47208
     2019.98631       -46.61520        10.49041
     2019.98904       -35.58730        10.34957
     2019.99178       -46.61340        10.29652
     2019.99452       -44.13850        10.38912
     2019.99726       -25.34060        10.88687
     2020.03011       -51.06178        10.59362
     2020.03285       -63.79988        10.43446
     2020.03559       -58.48098        10.61388
     2020.03833       -50.15408        10.85215
     2020.04106       -55.83218        12.00971
     2020.04380       -70.57828        11.07980
     2020.04654       -62.42538        10.18269
     2020.04928       -55.16148        10.47497
     2020.05201       -67.48058        10.64475
     2020.05475       -47.96167        10.48655
     2020.05749       -45.19477        10.54153
     2020.06023       -46.53687        10.66018
     2020.06297       -57.76897        10.51067
     2020.06519       -47.95624        13.73158
     2020.07218       -63.00477        31.75000
     2020.07392       -40.55537        10.18365
     2020.07666       -24.74346        10.77883
     2020.07939       -51.85256        10.11324
     2020.08213       -53.04666        10.21259
     2020.08487       -28.08976        10.60134
     2020.09034       -50.03396        10.56276
     2020.09308       -60.24606        10.89941
     2020.09582       -35.22316        10.01967
     2020.09856       -36.53626        11.23704
     2020.10130       -48.51035        10.44700
     2020.10677       -47.92555        10.68623
     2020.10951       -60.48665        10.82996
     2020.11225       -47.22675        10.39973
     2020.11498       -49.07185        10.51549
     2020.11772       -51.58195        10.48751
     2020.12046       -55.69105        10.55311
     2020.12320       -56.74414        10.39491
     2020.12594       -58.24424        10.32931
     2020.12867       -60.89834        10.54829
     2020.13141       -46.94644        10.19909
     2020.13415       -55.62354        10.55600
     2020.13689       -66.75864        11.89009
     2020.13963       -48.27174        11.14636
     2020.14236       -55.10784        10.52514
     2020.14510       -55.28494        10.58398
     2020.14784       -54.66103        10.63703
     2020.15058       -55.86813        11.02867
     2020.15331       -51.46023        10.53382
     2020.15605       -62.51933        10.75568
     2020.15879       -61.66943        10.48076
     2020.16153       -55.17053        10.81645
     2020.16427       -45.54163        11.13961
     2020.22176       -75.94370        11.76469
     2020.22450       -64.04280        11.25536
     2020.22724       -51.94990        11.40006
     2020.22997       -53.46300        11.55344
     2020.23271       -62.84110        11.39524
     2020.23545       -63.69620        11.55151
     2020.23819       -60.20330        11.25440
     2020.24093       -52.90839        11.85923
     2020.24355       -50.66086        18.91939
     2020.24914       -73.54169        12.03768
     2020.25188       -61.45179        11.47627
     2020.26009       -47.87609        11.38945
     2020.26283       -41.80219        17.98948
     2020.26483       -39.74119        16.75186
     2020.26932       -68.08099        26.24194
     2020.28747       -60.92307        11.65569
     2020.29021       -54.56117        11.57080
     2020.29277       -68.01733        12.28077
     2020.33624       -46.65802        13.73544
     2020.34322       -99.52553        26.19756
     2020.34417       -62.66875        14.99525
     2020.49828       -47.79568        14.61422
     2020.50102       -54.93678        14.44155
     2020.50650       -72.59698        20.78982
     2020.50924       -66.41608        14.54766
     2020.51197       -56.96618        14.14927
     2020.51471       -56.22728        14.77242
     2020.51745       -57.08038        14.36438
     2020.52019       -52.99848        14.17242
     2020.52292       -72.89157        17.42710
     2020.52566       -62.27867        17.07404
     2020.52840       -65.93677        15.84896
     2020.53114       -58.34087        17.52453
     2020.53388       -62.99897        16.95539
     2020.53542      -100.67646        59.56719
     2020.54029       -77.40833        38.95197
     2020.54209       -59.78627        17.26986
     2020.54602       -80.31594        41.17642
     2020.54757       -47.74146        16.05539
     2020.55030       -68.41456        15.57597
     2020.55304       -28.47466        16.10073
     2020.55578       -56.84476        15.39076
     2020.55852       -53.62986        15.55088
     2020.56125       -42.27596        15.64156
     2020.56399       -37.77006        15.57307
     2020.56673       -58.78316        15.09944
     2020.56947       -28.72225        14.63448
     2020.57221       -37.89535        14.77918
     2020.57494       -62.64745        15.33288
     2020.57768       -20.66655        15.79011
     2020.58042       -33.11865        16.81263
     2020.58317       -59.30680        14.79172
     2020.58590       -30.09985        14.91037
     2020.58863       -39.62795        14.56599
     2020.59137       -45.47805        14.83609
     2020.59411       -35.29614        14.55345
     2020.59673       -46.15861        17.19655
     2020.60049        19.75768        48.52887
     2020.60871       -19.14664        25.90624
     2020.61054       -59.49674        19.32261
     2020.61327       -51.16784        14.77339
     2020.61601       -47.22093        14.11647
     2020.61875       -42.95703        14.46471
     2020.62149       -54.48213        14.25634
     2020.62423       -54.71523        14.31519
     2020.62696       -54.55033        15.18239
     2020.62970       -55.41943        15.03095
     2020.63244       -33.69653        14.30458
     2020.63518       -61.36863        14.56696
     2020.63780       -19.65610        20.69721
     2020.64068       -75.58796        14.16374
     2020.64339       -38.13792        13.45956
     2020.64613       -46.88502        13.39589
     2020.64887       -46.82712        13.40843
     2020.65160       -42.07322        14.39525
     2020.65434       -56.18432        14.07885
     2020.65708       -57.77842        13.76727
     2020.65982       -54.50552        13.61197
     2020.66256       -64.69261        14.20522
     2020.66529       -33.56071        14.48400
     2020.66803       -48.41581        14.56792
     2020.67077       -55.08891        14.04605
     2020.67351       -54.30401        14.21004
     2020.67624       -55.64511        14.81583
     2020.67898       -57.84021        13.51068
     2020.68172       -60.65131        14.73191
     2020.68446       -60.75041        14.67693
     2020.68720       -65.07750        14.69622
     2020.68993       -62.78960        14.42998
     2020.69267       -46.34670        14.47532
     2020.69541       -42.30180        15.16792
     2020.69815       -94.44290        15.20265
     2020.70089       -48.12500        14.69622
     2020.70362       -60.71910        14.16567
     2020.70636       -70.88320        14.78593
     2020.70910       -65.81829        14.58914
     2020.71184       -63.35239        14.50136
     2020.71457       -55.63849        14.83802
     2020.71731       -65.79859        14.81873
     2020.72373       -87.30501        20.55252
     2020.72553       -37.05789        15.48915
     2020.72826       -39.47199        14.66728
     2020.73100       -46.69809        14.56310
     2020.73374       -43.98818        15.00683
     2020.73648       -71.61528        15.08497
     2020.73921       -77.43238        15.29333
     2020.74195       -61.00948        14.83898
     2020.74469       -87.63458        15.62613
     2020.74743       -54.74668        14.91230
     2020.75017       -71.88378        15.62998
     2020.75290       -87.50288        16.00523
     2020.75564       -52.37297        15.30104
     2020.75838       -59.20707        16.22227
     2020.76112       -19.64517        15.71680
     2020.76386       -63.31627        15.34831
     2020.76659       -60.08937        15.74092
     2020.76933       -46.91947        34.20693
     2020.77207       -53.75757        15.24027
     2020.77481       -52.32767        15.77275
     2020.77754       -59.61177        14.70876
     2020.78028       -52.27486        15.80362
     2020.78302       -58.13496        15.27307
     2020.78576       -53.15106        15.52966
     2020.82409       -47.10645        15.67050
     2020.82956       -38.36464        16.81359
     2020.83230       -52.31274        14.77725
     2020.83504       -35.54484        15.20844
     2020.83778       -75.43094        15.69269
     2020.84052       -40.42404        14.90747
     2020.84325       -42.95214        15.74188
     2020.84599       -42.42324        15.44960
     2020.84873       -52.73434        14.93255
     2020.85147       -46.48743        14.59397
     2020.85420       -57.25153        14.99140
     2020.85694       -50.31963        14.53127
     2020.85968       -43.56473        15.83159
     2020.86242       -49.16183        16.80105
     2020.86516       -46.55493        16.99784
     2020.86784       -57.38871        16.98337
     2020.87064       -33.98118        16.63128
     2020.87337       -41.58422        17.03160
     2020.87611       -35.70132        15.61841
     2020.87885       -50.31642        16.40169
     2020.88158       -45.11552        20.49753
     2020.88432       -55.98962        16.56665
     2020.88706       -65.11772        16.02452
     2020.88894       -55.16910        27.01075
     2020.89606       -79.12837       157.69182
     2020.91552      -110.72268       112.59608
     2020.91718       -82.34381        15.97725
     2020.91986       -54.07759        17.50041
     2020.92539       -61.77610        15.91841
     2020.92815       -45.80433        16.24735
     2020.93087       -66.57335        17.64318
     2020.93361       -18.58345        18.23739
     2020.93634       -44.91052        16.31777
     2020.93908       -77.60362        16.33706
     2020.94181       -63.61467        16.05925
     2020.94455       -74.84877        15.97243
     2020.94729       -70.61389        17.13964
     2020.95002       -62.86397        17.27469
     2020.95277       -79.40509        16.12870
     2020.95551       -32.66019        94.16962
     2020.95824       -72.93429        15.91455
     2020.96098       -56.05939        15.99944
     2020.96360       -50.17586        20.79271
     2020.96575       -78.52168        26.56220
     2020.97467       -70.16288        15.78047
     2020.97741       -58.78198        16.19719
     2020.98015       -69.49008        17.69237
     2020.98288       -64.50718        16.05153
     2020.98562       -57.79928        15.82677
     2020.98836       -67.92938        15.64349
     2020.99110       -62.93247        16.15571
     2020.99384       -54.72457        16.62838
     2020.99657       -63.81067        16.40169
     2020.99931       -44.43477        15.80169
     2021.00205       -64.47787        15.68979
     2021.00479       -55.09197        15.96568
     2021.00752       -49.33007        16.31681
     2021.01026       -59.64417        15.62806
     2021.01300       -55.31827        15.40522
     2021.01574       -75.29136        15.97725
     2021.01848       -60.93246        15.94542
     2021.02121       -61.43656        16.26954
     2021.02395       -40.44066        15.72741
     2021.02669       -57.90376        15.25956
     2021.02943       -57.85686        15.61552
     2021.03216       -35.92896        16.93610
     2021.03490       -54.19606        16.26857
     2021.03764       -57.02815        16.20587
     2021.04038       -60.35325        16.69205
     2021.04312       -61.25035        15.19300
     2021.04585       -40.65445        16.35539
     2021.04859       -58.19655        15.39558
     2021.05133       -48.62465        16.69784
     2021.05407       -65.88675        16.19333
     2021.05681       -64.26385        15.71198
     2021.05954       -63.51295        15.21809
     2021.06228       -63.93704        15.51519
     2021.06502       -59.66914        17.58434
     2021.06776       -60.66624        16.34864
     2021.07049       -62.75434        16.35732
     2021.07323       -79.92844        15.83642
     2021.07597       -67.22554        16.73546
     2021.07871       -65.53264        16.07372
     2021.08145       -64.24574        15.89719
     2021.08418       -72.94383        15.63288
     2021.08692       -78.69493        15.80941
     2021.08966       -71.58203        16.00330
     2021.09240       -57.35913        17.45411
     2021.09514         8.72077        63.19036
     2021.09787       -66.33933        22.03709
     2021.10061       -75.48443        15.71005
     2021.10335       -79.71353        16.88883
     2021.10882       -72.97772        17.02678
     2021.11156       -78.27082        17.42710
     2021.11430       -81.13692        15.66278
     2021.11704       -62.69502        16.18754
     2021.11978       -84.18712        15.84124
     2021.16084       -65.43860        15.65796
     2021.16358       -84.62170        16.76247
     2021.16632       -55.28480        16.23385
     2021.16906       -71.15890        16.01198
     2021.17180       -68.78100        15.52098
     2021.17453       -62.42610        17.03160
     2021.17727       -61.42120        15.81616
     2021.18001       -54.06129        16.65539
     2021.18275       -85.49539        16.53095
     2021.18548       -98.26549        15.78240
     2021.18822       -94.34459        15.48432
     2021.19096       -67.44469        15.34156
     2021.19370       -72.28679        17.42035
     2021.19644       -65.97989        15.33674
     2021.19917      -103.38599        16.18272
     2021.20163      -101.09351        31.72975
     2021.20557       -75.05124        23.53228
     2021.20739       -80.38328        14.91712
     2021.21013       -65.90638        14.97210
     2021.21286       -69.35348        15.25956
     2021.21503      -111.34243        38.67705
     2021.22199       -68.50081        25.04482
     2021.22381       -78.73588        15.98015
     2021.22655       -78.52797        15.14767
     2021.22929       -76.36107        16.49816
     2021.23191       -63.73054        16.35539
     2021.24555       -60.68972        20.02100
     2021.24935       -84.29372        23.02777
     2021.25119       -61.58786        15.07146
     2021.25393       -63.23896        15.38014
     2021.25667       -82.61206        15.07339
     2021.25941       -79.08416        16.07082
     2021.26214       -68.92426        14.84959
     2021.26488       -70.01036        14.69332
     2021.26762       -58.09746        18.14575
     2021.27036       -77.02256        18.74865
     2021.27310       -83.80865        15.29815
     2021.27583       -90.57675        16.27147
     2021.27857       -83.52785        16.50684
     2021.28131       -69.31995        15.56053
     2021.28405       -69.48205        15.77757
     2021.28679       -84.82915        16.10459
     2021.29868       -92.52876        22.55896
     2021.30047       -82.66364        15.47082
     2021.30321      -100.16474        15.07725
     2021.30595       -76.50784        15.80458
     2021.30869       -72.88094        15.39172
     2021.31143       -70.42404        15.12452
     2021.31382       -62.67425        20.84094
     2021.31780       -99.17122        28.74420
     2021.31964       -65.83933        15.55088
     2021.32238       -75.90443        16.45571
     2021.32512       -72.45053        15.50651
     2021.32785       -70.47263        15.80458
     2021.33059       -68.37473        14.82451
     2021.35797       -71.85172        16.62163
     2021.36031       -87.80062        24.90785
     2021.36433       -82.88879        23.70205
     2021.36618       -75.40201        15.96471
     2021.36892       -64.93811        15.18915
     2021.37530       -54.58032        25.10367
     2021.37713       -62.35841        17.48305
     2021.37987       -66.94751        15.34735
     2021.38261       -74.22861        26.84098
     2021.39718       -71.20095        22.39111
     2021.39904       -73.35120        15.28754
     2021.40177       -50.14130        15.59815
     2021.40451       -52.68440        18.40524
     2021.40725       -77.43250        16.13160
     2021.40999       -49.32160        15.50651
     2021.41273       -70.55869        15.23545
     2021.41546       -47.70879        15.78433
     2021.41820       -62.89089        15.64735
     2021.42083       -78.73636        17.29302
     2021.42371       -61.63025        21.53355
     2021.42642       -59.31419        16.37372
     2021.42915       -55.74029        15.76793
     2021.43189       -40.42239        15.72645
     2021.43463       -55.15749        16.68144
     2021.43737       -60.76458        15.64831
     2021.44010       -62.08368        15.56728
     2021.44284       -51.53478        15.94446
     2021.44558       -46.56988        15.67146
     2021.44832       -60.50098        15.46889
     2021.45106       -55.14208        15.75732
     2021.45379       -52.31418        15.40812
     2021.45653       -45.49528        15.44670
     2021.45927       -55.76337        15.39558
     2021.46201       -65.96547        15.08014
     2021.46475       -51.91857        15.93192
     2021.46748       -32.97167        16.37275
     2021.47022       -44.62277        18.40331
     2021.47296       -64.69787        21.39850
     2021.47570       -56.81397        21.70043
     2021.47843       -50.26207        21.16699
     2021.48117       -48.83017        21.49207
     2021.48391       -48.95926        24.44096
     2021.48665       -63.12636        21.47085
     2021.48939       -62.54246        22.66893
     2021.49212       -31.43856        22.17021
     2021.49486       -61.61166        22.83967
     2021.49714         2.98776        34.85516
     2021.50943        21.63902        45.27998
     2021.51130       -59.14133        22.13066
     2021.51403       -75.42435        20.96635
     2021.51677       -68.06550        20.92487
     2021.51950       -71.31852        21.04062
     2021.52224       -37.56762        20.94512
     2021.52497       -64.67672        20.96924
     2021.52772       -68.02585        22.75092
     2021.53045       -61.69894        21.45542
     2021.53319       -29.87104        20.98757
     2021.53593        -0.86017        25.07762
     2021.53867       -54.71627        22.85221
     2021.54141       -56.60234        21.06281
     2021.54414       -47.23944        21.08500
     2021.54688       -48.75254        20.96731
     2021.54962       -77.68364        21.59529
     2021.55236       -43.56474        20.78692
     2021.55509       -48.49683        21.59625
     2021.55783      -109.16193        22.10172
     2021.56057       -52.87603        20.81201
     2021.56331       -62.50613        20.38660
     2021.56605       -54.05823        21.27503
     2021.56878       -58.00033        20.88821
     2021.57152       -59.73943        20.67213
     2021.57426       -90.23453        21.35799
     2021.57700       -48.27862        22.72777
     2021.57974       -62.49272        21.87793
     2021.58247       -92.20282        22.35832
     2021.58521       -60.19692        24.12070
     2021.58795       -73.22802        22.51941
     2021.59069       -62.41712        21.78532
     2021.59342       -26.07322        22.94288
     2021.59616       -33.62432        22.07954
     2021.59890       -56.53442        21.97536
     2021.60164       -45.79951        21.71008
     2021.60438       -40.36961        22.11619
     2021.60711       -46.42871        20.99143
     2021.60985       -78.18881        23.13871
     2021.61259       -44.59191        21.38114
     2021.61533       -40.46301        21.25091
     2021.61807       -49.65811        23.98758
     2021.61995      -102.65949        71.04153
     2021.62442        38.22982       106.86711
     2021.62628       -60.96640        65.75918
     2021.62902       -38.64150        31.46351
     2021.63175       -53.75560        20.90172
     2021.63449       -63.91170        22.24256
     2021.63723       -46.33780        21.80944
     2021.63997       -33.44390        20.80911
     2021.64271       -43.53600        20.33355
     2021.64544       -62.79210        21.84802
     2021.64818       -68.07619        20.88049
     2021.65092       -65.09329        30.57122
     2021.65366       -53.85139        20.55252
     2021.65639         4.93051        21.43612
     2021.65913       -51.44659        23.04031
     2021.66187         5.76331        63.42284
     2021.66461       -88.98379        20.86506
     2021.66735       -46.65589        23.45607
     2021.67008       -70.67299        20.32390
     2021.67282        -8.29208        34.03330
     2021.67556       -34.70418        21.32423
     2021.67830       -24.40828        21.40236
     2021.68104       -43.97338        24.10141
     2021.68377       -69.43948        24.26251
     2021.68651       -32.44658        23.99820
     2021.68925      -178.13668        33.04840
     2021.69199       -67.62978        69.49811
     2021.70841       -67.53337        23.15993
     2021.71115       -65.23447        23.67311
     2021.71389       -46.48757        22.41137
     2021.72026       -25.09669        57.91381
     2021.72210       -60.75786        22.57246
     2021.72484       -85.58996        22.34867
     2021.72758       -27.21506        23.20527
     2021.73032       -36.60816        21.79883
     2021.73305       -48.03526        22.09979
     2021.73579       -68.58336        22.24835
     2021.73853       -45.60146        22.43549
     2021.74127       -61.10755        22.08629
     2021.74395        -2.74234        75.20007
     2021.75148       -49.38786        47.93080
     2021.76409        86.71057       113.48258
     2021.76591       -80.44144        22.68629
     2021.76865       -28.39554        23.78598
     2021.77138       -82.37064        22.51169
     2021.77412       -55.42674        21.27503
     2021.77686       -59.37784        21.66088
     2021.77960       -26.91094        22.30815
     2021.78234       -38.14404        22.15574
     2021.78507       -51.20414        21.62905
     2021.78781       -41.25523        22.06700
     2021.79055       -48.54533        20.78789
     2021.79329       -63.43643        21.42648
     2021.79603       -44.78253        21.55767
     2021.79876       -40.36863        21.76699
     2021.80150       -59.11173        21.14770
     2021.80424       -41.44783        27.80079
     2021.80698       -57.57893        21.12648
     2021.80971       -67.54503        21.26056
     2021.81245       -51.50312        22.41234
     2021.81519       -42.75622        20.63065
     2021.81793       -50.34132        22.64867
     2021.82067       -38.78242        21.42841
     2021.82340       -50.70652        20.96828
     2021.82614       -39.16962        21.29915
     2021.82888       -56.10972        21.76314
     2021.83162       -65.42182        21.25091
     2021.83436       -56.39391        21.89915
     2021.83709       -22.05701        23.32102
     2021.83983       -56.11911        22.72198
     2021.84257       -41.30921        25.51460
     2021.84531       -54.96431        20.51972
     2021.84804       -71.64441        20.52937
     2021.85044       -43.79662        29.94807
     2021.85457      -142.31037        42.32048
     2021.85597       -57.50713        25.94386
     2021.87542       -77.61340        23.66154
     2021.87816       -82.18150        20.46377
     2021.88090       -60.78660        21.14095
     2021.88364       -72.04969        20.49078
     2021.88637       -65.70679        19.82518
     2021.88911       -56.87789        20.45605
     2021.89185       -53.08199        20.61715
     2021.89459       -58.50809        20.39625
     2021.89733       -70.03619        20.95767
     2021.90006       -64.50729        20.86988
     2021.90280       -61.54239        21.23162
     2021.90554       -66.31248        21.21619
     2021.90828       -70.52758        20.84770
     2021.91102       -56.49768        22.83967
     2021.91375       -84.75378        21.25188
     2021.91649       -52.36088        22.25896
     2021.91923       -79.97198        30.69662
     2021.93292       -54.75847        30.33778
     2021.93566       -56.39957        33.77091
     2021.93839       -98.15667        54.77488
     2021.94113      -120.91877        54.98903
     2021.94387       -60.27687        30.81817
     2021.94661       -80.88997        30.37829
     2021.94935       -38.60507        32.01914
     2021.95208       -62.93216        30.00884
     2021.95482       -69.47326        31.58119
     2021.95756       -34.09336        30.00305
     2021.96018       -69.13483        34.78957
     2021.96325       -73.65577        33.49889
     2021.96577       -61.82166        30.38022
     2021.96851       -63.50676        31.56865
     2021.97125       -80.15586        31.42010
     2021.97399       -48.84796        33.24615
     2021.97672       -42.34305        33.33490
     2021.97946       -38.35315        31.81753
     2021.98220       -55.61025        31.67959
     2021.98494       -30.02335        30.59341
     2021.98767       -41.17745        33.52493
     2021.99041       -47.20055        31.71817
     2021.99315       -45.30265        33.14294
     2021.99589       -63.58675        30.81238
     2021.99863       -40.80584        35.39150
     2022.00136       -39.62694        30.12363
     2022.00410       -55.30404        33.59342
     2022.00684       -65.60414        33.20082
     2022.00958       -89.83824        37.06611
     2022.01232      -102.61734        33.00403
     2022.01505       -90.89344        32.62396
     2022.01779       -44.87554        30.03102
     2022.02053       -55.56864        33.86063
     2022.02327      -123.17573        31.27926
     2022.02600       -51.56583        33.85773
     2022.02874       -51.84993        30.84711
     2022.03148       -93.41303        31.02942
     2022.03422       -77.73813        31.47798
     2022.03696       -26.09623        35.38089
     2022.03969       -31.12733        35.52076
     2022.04243       -96.02343        34.39600
     2022.04517      -113.58452        30.60981
     2022.04791       -59.21062        46.31117
     2022.05065       -78.18772        38.20148
     2022.05338       -43.58182        32.90178
     2022.05612      -133.87892        45.16036
     2022.05886       -83.14002        32.01142
     2022.06160      -160.71812        33.18538
     2022.06433      -100.75922        32.39052
     2022.06707       -78.78332        33.33876
     2022.06981       -87.00541        31.00627
     2022.07255       -80.04951        26.90850
     2022.07529       -68.94061        26.44740
     2022.07802       -58.01571        29.90273
     2022.08076      -104.28781        27.05802
     2022.08350       -80.65291        26.61525
     2022.08624       -76.76601        25.80399
     2022.08898       -56.70111        26.57859
     2022.09171      -102.86621        26.06541
     2022.09445       -71.02230        28.18761
     2022.09719       -79.70640        26.29113
     2022.10266       -28.72860        26.40785
     2022.10540       -58.37170        27.94645
     2022.10814       -44.32180        27.59243
     2022.11088       -67.59190        27.26734
     2022.11362       -99.68800        26.69242
     2022.11635       -46.19009        26.38953
     2022.11909       -64.40519        27.66092
     2022.12183       -71.95529        26.39338
     2022.12457       -77.71639        25.79242
     2022.12731       -97.95749        26.70303
     2022.13004       -31.21559        26.51107
     2022.13278       -56.61369        26.04612
     2022.13552       -53.63679        26.63261
     2022.15742      -106.76658        27.25191
     2022.16016       -63.65368        26.42908
     2022.16290       -57.99977        26.44837
     2022.16564       -44.07687        26.26991
     2022.16837       -73.88997        26.59982
     2022.17111       -85.22807        29.92974
     2022.17385       -84.14317        27.91751
     2022.17659       -65.20627        27.66767
     2022.17932       -97.00337        27.40915
     2022.18206       -44.51447        27.18149
     2022.18480       -81.52957        26.90946
     2022.18754      -100.73866        51.30123
     2022.19028       -48.52076        41.16099
     2022.19301       -50.14186        26.38953
     2022.19575       -60.87296        26.23518
     2022.19849       -58.61006        25.68727
     2022.20094       -67.49459        31.61496
     2022.20487        13.94774        66.36401
     2022.20670       -68.98136        26.70014
     2022.20944       -50.27345        25.94965
     2022.21218       -70.59755        25.50206
     2022.21492       -92.75965        26.20335
     2022.21765       -73.92475        27.15159
     2022.22039       -17.11585        26.91911
     2022.22313       -47.03195        26.19467
     2022.22587       -85.44305        41.28832
     2022.22861       -62.24715        62.85853
     2022.23134       -83.63225        26.59499
     2022.23408       -72.65634        27.03969
     2022.23682       -80.23744        27.18631
     2022.23956       -54.68654        26.75705
     2022.24230       -52.16264        29.41848
     2022.24493       -96.11616        35.41658
     2022.24781      -101.34807        70.44056
     2022.24948       -26.59628       141.71456
     2022.25684       -26.65688        55.27360
     2022.25872       -85.04323        28.34677
     2022.26146       -87.26333        29.77250
     2022.26420       -69.42143        27.70047
     2022.26694       -17.81153        37.03813
     2022.26967       -64.87863        27.90497
     2022.28336       -86.34112        43.08254
     2022.28610       -91.55722        27.73616
     2022.28884       -87.39532        28.83874
     2022.29158       -97.09442        29.56125
     2022.29431       -69.08252        28.24645
     2022.29705       -46.62162        28.85224
     2022.29979       -68.32372        40.65166
     2022.30253       -65.90982        29.13488
     2022.30527       -91.94191        29.00562
     2022.30800       -78.41401        29.07121
     2022.31074       -67.85011        29.40498
     2022.31348       -69.89221        28.40368
     2022.31622       -85.90431        27.22394
     2022.31895      -137.46141        61.61222
     2022.32169      -115.80351        63.77493
     2022.32443       -41.24761        29.30080
     2022.32717       -73.71670        27.86638
     2022.32991       -28.88380        27.39757
     2022.33264       -88.45390        26.26316
     2022.33538       -89.99300        26.76959
     2022.33812      -104.33310        27.06381
     2022.34063       -49.84494        38.53911
     2022.34462        22.93604        65.20645
     2022.34633       -68.96940        26.90078
     2022.34907       -89.25950        26.98374
     2022.35181       -79.00359        30.10241
     2022.35455       -48.80569        26.52072
     2022.35728       -67.69579        26.71171
     2022.36002       -60.47489        26.38953
     2022.36276       -90.19199        26.25544
     2022.36550       -78.10009        25.96412
     2022.36824       -74.65919        26.54580
     2022.37097       -34.68929        29.86704
     2022.37371       -59.01338        27.53165
     2022.37645       -45.77448        37.63428
     2022.37924       -68.07890        26.47056
     2022.38193       -65.87468        26.56895
     2022.38466       -83.14778        26.46959
     2022.38740       -56.62488        26.40400
     2022.39014       -66.04698        25.51557
     2022.39288       -58.14708        27.41493
     2022.39561       -76.81918        26.54290
     2022.39835       -54.40127        25.38245
     2022.40109       -51.66737        26.19081
     2022.40383       -36.68547        26.05769
     2022.40657       -43.16357        25.49434
     2022.40930       -55.11067        25.41814
     2022.41204       -73.37377        25.29949
     2022.41478       -34.43487        25.23196
     2022.41752       -23.52497        25.52328
     2022.42026       -37.07207        25.08823
     2022.42299       -42.62816        25.08823
     2022.42573       -50.04126        25.30528
     2022.42847       -87.01936        25.57055
     2022.43121       -48.35946        29.17925
     2022.43394       -41.64156        25.81943
     2022.43668       -73.51866        25.81267
     2022.43942       -39.70776        25.31396
     2022.44216       -45.45186        25.77216
     2022.44490       -45.81895        25.09016
     2022.44763       -23.73005        25.68148
     2022.45037       -50.53115        26.17731
     2022.45311       -49.93525        25.43936
     2022.45589       -82.40459        29.31912
     2022.45862       -53.96866        25.35061
     2022.46135       -37.34668        24.64547
     2022.46408       -45.71475        24.70238
     2022.46682       -60.80185        25.27344
     2022.46955       -62.53792        25.74611
     2022.47227       -46.04494        25.54547
     2022.47501       -57.95304        25.22618
     2022.47775       -37.21611        25.62939
     2022.48048       -33.98221        26.24290
     2022.48323        15.36166        26.36541
     2022.48596        30.04756        29.68568
     2022.48870       -36.39554        26.25641
     2022.49143       -55.87961        24.69370
     2022.49418       -43.23173        25.52135
     2022.49692       -47.37883        26.08856
     2022.49965       -43.41893        25.42007
     2022.50239       -64.01503        27.94452
     2022.50513       -81.76113        31.89277
     2022.50787       -18.51323        25.83004
     2022.51060       -61.11233        25.90914
     2022.51334       -65.19743        26.25930
     2022.51608       -69.23652        24.74096
     2022.51882       -75.76462        25.50881
     2022.52156       -43.28472        25.08823
     2022.52429       -43.11082        26.74258
     2022.52703       -65.11392        29.20240
     2022.52977       -48.60702        29.18697
     2022.53251       -46.40112        46.23304
     2022.53525       -52.36022        38.52271
     2022.53800       -75.50442        25.21557
     2022.54072       -49.39241        30.16221
     2022.54346       -62.92051        25.60238
     2022.54620       -38.72161        24.66476
     2022.54893        18.54629        25.27151
     2022.55167       -40.79181        25.28791
     2022.55441       -31.43791        24.70913
     2022.55715       -11.88601        26.61911
     2022.55989       -15.41711        28.51076
     2022.56262         5.42580        25.11235
     2022.56536       -51.68830        25.19917
     2022.56810       -13.73940        26.29789
     2022.57084         0.01950        28.22716
     2022.57357        47.56640        26.49371
     2022.57631       -37.37170        24.08115
     2022.57905       -40.74080        24.04546
     2022.58179       -46.31890        23.93839
     2022.58453       -49.30399        23.37408
     2022.58726       -71.33809        23.35961
     2022.59000       -23.31919        22.87922
     2022.59274       -19.74529        22.65156
     2022.59548       -63.35439        23.32777
     2022.59822        55.69451        26.32393
     2022.60095       -24.34459        22.91587
     2022.60369       -19.23569        22.30623
     2022.60643       -32.28779        22.01780
     2022.60917       -15.70188        22.29851
     2022.61190       -50.10098        27.95513
     2022.61464       -40.78808        23.14160
     2022.61738       -46.43618        22.96796
     2022.62012       -27.69728        23.70398
     2022.62286       -24.15338        21.84320
     2022.62559       -36.11848        21.20558
     2022.62833       -37.26058        21.37053
     2022.63107       -11.54768        21.88950
     2022.63381         0.21023        21.24416
     2022.63655       -31.98487        20.70782
     2022.63928       -23.48597        21.00011
     2022.64191       -44.90344        22.32938
     2022.64476       -35.10217        21.47567
     2022.64750       -32.29127        21.36474
     2022.65023       -51.12237        20.06152
     2022.65297       -46.78147        20.17824
     2022.65571       -37.66756        19.59367
     2022.65845        -7.47566        20.05959
     2022.66119       -27.61076        20.66345
     2022.66392        -3.19086        19.53965
     2022.66667       -45.03901        19.94190
     2022.66940       -19.10006        19.59946
     2022.67214       -62.27516        19.98145
     2022.67488       -14.27826        19.73644
     2022.67761       -19.18036        19.03901
     2022.68035       -40.73945        19.00524
     2022.68309       -30.57655        19.61489
     2022.68583       -38.87665        19.32936
     2022.68856       -18.13575        19.34480
     2022.69130       -25.30085        19.09110
     2022.69404         1.69005        19.27148
     2022.69678       -22.00105        19.02068
     2022.69954       -48.05725        18.87019
     2022.70225       -22.56024        18.97438
     2022.70499       -11.13534        18.50363
     2022.70773       -33.93744        18.34736
     2022.71047       -33.58554        18.46794
     2022.71321       -11.32267        18.24318
     2022.71594       -18.88674        19.14801
     2022.71868       -41.92784        18.41006
     2022.72142       -22.91594        18.72646
     2022.72416       -13.20004        19.31103
     2022.72689       -13.27613        18.07919
     2022.72963        -6.67323        18.69463
     2022.73237       -20.52033        18.28466
     2022.73511       -53.16343        19.10267
     2022.73785       -22.08153        18.63386
     2022.74058       -34.34263        18.45926
     2022.74332        -2.31373        18.57309
     2022.74606       -38.30283        18.83161
     2022.74880       -13.82792        18.84511
