# ================= DQRFIT RESULTS ================
# INPUT FILE: series/BFIR.rad
# OUTPUT: LDETRENDED
# FILTER FUNCTION: f(t)
# f(t)=+line(t)+annual(t)+jumps(t)
# line(t)=+P 1+P 2*t
# annual(t)=+P 3*sin(2*pi*t+P 4)
# jumps(t)=+P 5*heav(t-2011.2964  )
# heav(t)=(t<0?0:1)
# TOTAL OBSERVATIONS MTOT= 3869
# INITIAL TIME INTERVAL= 2020.9500 - 2008.4408 = 12.5092
# TOTAL OBSERVATIONS AFTER PREFILTER M= 3662
# TIME-SPAN= 2020.9500 - 2008.4408 = 12.5092
# OBSERVATIONS: USED M=  3662 REJECTED MTOT-M=   207 %USED=   94.6498
# N=  5 PARAMETERS
# MAXSIG= 175.00000
# MAXRES= 210.98182
# SCALE FACTOR FOR LENGTHS: SCL=  10.00000
# SCALE FACTOR FOR SIGMAS: SCLSIG=   1.00000
# CHI^2=   2927.044 DOF=  3657 CHI^2/DOF=   0.80039
# RMS=     19.809 SDEV=     19.808 MEAN=    0.37424
#  P #       PARAMETER +-    SIGMA %error PARAMETER NAME
# P 1 =      2450.36855 +-   64.113   2.62 YZERO                              
# P 2 =        -1.37254 +-    0.032   2.32 SLOPE                              
# P 3 =         4.73554 +-    0.127   2.67 ANNUAL AMPLITUDE                   
# P 4 =        -2.95218 +-    0.037   1.26 ANNUAL PHASE                       
# P 5 =       316.21841 +-    0.297   0.09 OFFSET 2011.2964                   
#       T            LDETRENDED       SIG_OBS
     2008.44079       -10.83021         5.28200
     2008.44353        -4.55146         5.07981
     2008.44626        -1.11070         5.15138
     2008.44900        -9.18994         5.13349
     2008.45174        -9.34918         5.11739
     2008.45448        -0.16542         5.06281
     2008.45762        -1.90312         5.75348
     2008.45995         0.52709         5.00734
     2008.48733        -1.35333         4.94114
     2008.49007        -3.96957         5.01182
     2008.49281        -4.45281         5.07534
     2008.49555       -14.71706         5.26321
     2008.49828        -7.55030         5.24532
     2008.50102       -15.05154         5.38757
     2008.50376        -5.09578         5.14691
     2008.50650        -3.58603         5.07623
     2008.50924        -4.41727         5.11828
     2008.51197        -0.73651         5.02971
     2008.51471        -1.25375         5.03329
     2008.52019         0.28376         5.09412
     2008.52292        -3.98948         5.33926
     2008.52566        -4.92172         5.26500
     2008.52840         0.97804         4.99482
     2008.53114         2.20279         5.13259
     2008.53388        -1.90145         5.14423
     2008.53661        -2.03069         5.13170
     2008.53924        -0.44909         5.26232
     2008.54175         1.81736         5.98877
     2008.54483         3.46958         5.15496
     2008.54757         4.97234         5.11560
     2008.55030         2.26710         5.05655
     2008.55304         4.95286         5.11470
     2008.55578         1.31661         5.06729
     2008.55852         5.19737         4.99392
     2008.56125        -2.05087         5.08071
     2008.56399         1.43189         5.09323
     2008.56673        -2.70435         5.05565
     2008.56947         5.82840         4.98319
     2008.57221         8.95816         5.06281
     2008.57460         1.31345         6.33679
     2008.57728         4.70613         6.72149
     2008.58042         4.48744         5.02971
     2008.58316         0.30919         5.23101
     2008.58590         8.67895         4.92414
     2008.58863         8.82971         5.11739
     2008.59137         0.38247         5.06639
     2008.59411         8.46922         4.94561
     2008.59685        -1.66902         5.09412
     2008.59958         0.59774         5.34552
     2008.60232         6.56850         5.32226
     2008.60506         0.72626         5.17912
     2008.60780         1.81001         5.12544
     2008.61054         5.29377         5.00466
     2008.61327         8.37153         5.01182
     2008.61601         6.91529         5.06281
     2008.61875         6.63304         4.98766
     2008.62149         5.63280         5.03239
     2008.62423         7.12556         5.02524
     2008.62696        -0.56168         5.21759
     2008.62970         0.43808         5.34999
     2008.63244         3.57083         5.06550
     2008.63518         8.11659         5.18269
     2008.63791         0.90435         5.36252
     2008.64065         5.68511         5.10844
     2008.64339         2.27786         5.16480
     2008.64613         2.26262         5.28468
     2008.64887         4.95538         5.27216
     2008.65160         5.32214         5.10844
     2008.65434         0.18790         5.20685
     2008.65708        13.30365         5.24621
     2008.65982         5.93741         5.18717
     2008.66256         6.93017         5.17106
     2008.66529        10.63293         5.11560
     2008.66803         3.86969         5.07892
     2008.67077         4.23744         5.14512
     2008.67339        10.62804         5.33479
     2008.67624         8.29796         5.51550
     2008.67898         3.21372         5.25158
     2008.68172         2.81447         5.19701
     2008.68446         7.67923         5.12812
     2008.68720         4.41099         5.17912
     2008.68993         7.66775         5.19075
     2008.69256         6.03735         5.28290
     2008.69541         9.69926         5.12812
     2008.69815         7.68602         5.13349
     2008.70089         6.63978         5.19343
     2008.70362         7.18254         5.12723
     2008.70636        12.34429         5.10039
     2008.70910         6.99305         5.20327
     2008.71184         2.12581         5.29721
     2008.71457         1.58557         5.12723
     2008.71731        -1.19667         5.15407
     2008.72005         2.17108         5.09681
     2008.72279        -1.21216         5.22295
     2008.72518        -5.04587         5.98698
     2008.72826         8.81036         5.05834
     2008.73100         2.99011         5.15764
     2008.73351         3.14456         5.48598
     2008.73648         5.52963         5.07176
     2008.73921         4.85839         5.09234
     2008.74469         7.06690         5.02703
     2008.74743         3.46566         5.15943
     2008.75017         2.88342         5.11202
     2008.75290        10.25818         5.03508
     2008.75564         7.48994         5.20506
     2008.75838         5.02169         5.16838
     2008.76112         6.75745         5.11381
     2008.76386         6.25521         5.06192
     2008.76659        -0.76903         5.16301
     2008.76933         3.56872         5.08071
     2008.77207         6.84348         4.96619
     2008.77481         2.60224         4.99392
     2008.77754         5.26500         4.93756
     2008.78028         2.27276         5.00108
     2008.78302         5.67751         4.94651
     2008.78576        -0.33273         4.98408
     2008.78850         2.47103         5.10844
     2008.79123        -0.14721         5.12633
     2008.79397         0.40154         5.13349
     2008.79671        -2.88170         5.17643
     2008.79945         0.23406         5.03955
     2008.80219        -2.33518         5.24800
     2008.80492        -1.49442         5.14244
     2008.80766         2.91733         5.04671
     2008.81040         0.00809         5.18538
     2008.81314         8.01985         4.97782
     2008.81587         3.59861         5.10128
     2008.81861         1.43436         4.98408
     2008.82135         0.31212         5.08428
     2008.82409        -0.85212         5.12096
     2008.82683         2.19664         5.11828
     2008.82956        -0.49260         5.14154
     2008.83230       -10.14485         5.28379
     2008.83504         2.75591         5.14244
     2008.83778        -5.08933         5.37147
     2008.84052         2.01143         5.19075
     2008.84325        14.18419         5.00734
     2008.84599         8.84194         5.09055
     2008.84873         3.56270         5.05029
     2008.85147        -9.52954         5.18001
     2008.85420        -3.96578         5.36162
     2008.85694        10.04597         5.07086
     2008.85968        -0.79127         5.07623
     2008.86242         3.26249         5.12812
     2008.86516         8.43825         5.06460
     2008.86789         0.85701         5.23101
     2008.87063        -4.09524         5.25874
     2008.87337        -5.18848         5.11291
     2008.87611        -2.92772         5.10486
     2008.87885        -0.60496         5.14333
     2008.88158         0.02179         5.11739
     2008.88432        -2.79545         5.07265
     2008.88706         1.10931         5.12007
     2008.88980         2.67507         5.07892
     2008.89253         6.68583         4.97961
     2008.89527        -5.68442         5.25516
     2008.89801         4.18934         5.15675
     2008.90075        -1.66990         5.23101
     2008.90349        -3.03414         5.06729
     2008.90622        -5.91639         5.10039
     2008.90896         4.54437         5.11828
     2008.91170        -2.05787         5.18001
     2008.91444         3.04489         5.08249
     2008.91718         2.10765         5.14512
     2008.91991         1.17740         5.09860
     2008.92265        -0.16684         5.10039
     2008.92539        -1.36508         5.16749
     2008.92813         0.44468         5.17554
     2008.93086        -1.22456         5.16570
     2008.93360        -0.89681         5.16301
     2008.93634        -3.05105         5.12454
     2008.93908        -9.35629         5.07086
     2008.94182        -8.68153         5.17733
     2008.94455        -9.04978         5.21222
     2008.94729        -5.80302         5.24353
     2008.95003         6.84174         5.00108
     2008.95277         4.91250         4.99124
     2008.95824        -3.54599         5.04850
     2008.96098        -4.33223         5.16480
     2008.96372         2.77253         5.04581
     2008.96646        -7.15371         5.16928
     2008.96919       -10.50296         5.09502
     2008.97193         1.13080         5.06639
     2008.97467       -18.85144         5.27753
     2008.97741        -0.09168         5.08518
     2008.98015        -6.08192         5.25606
     2008.98283         5.03676         5.27395
     2009.00479        -0.25810         5.11202
     2009.00667        10.54948        12.90708
     2009.01574         2.00793         5.05208
     2009.01848         3.02569         5.04671
     2009.02121        -1.60456         5.20327
     2009.02395        -8.65780         5.16301
     2009.02669       -13.07504         5.03776
     2009.02943       -14.97228         5.08697
     2009.03216       -11.16553         5.09860
     2009.03490       -12.11077         5.00287
     2009.03764        -8.87601         4.99124
     2009.04038        -5.07025         4.95456
     2009.04312        -5.19049         4.92951
     2009.04585        -6.81374         4.95635
     2009.04859       -11.77698         5.12454
     2009.05133        -6.36722         5.00108
     2009.05407        -5.21646         4.96708
     2009.05681        -3.31071         5.00019
     2009.05937        -2.63018         5.50835
     2009.06228        -5.67119         4.97603
     2009.06502        -7.18543         5.05208
     2009.06776        -9.69267         5.06281
     2009.07049        -9.52892         4.99392
     2009.07209         8.25228        14.58634
     2009.07597        -1.87940         4.97961
     2009.07871        -6.11464         4.98766
     2009.08145        -2.57789         4.97782
     2009.08418        -6.85313         5.02971
     2009.08692        -4.42637         5.01271
     2009.08926        -3.45516         6.22854
     2009.09240        -5.24685         5.03329
     2009.09514        -0.77410         5.02703
     2009.09787         2.33766         5.04224
     2009.10061         4.43742         4.98587
     2009.10335        -3.02382         4.98050
     2009.10609         0.09394         5.06013
     2009.10882        -4.58131         5.09770
     2009.11156        -1.76855         5.01540
     2009.11430        -2.94379         5.09591
     2009.11704         2.13097         5.07713
     2009.11978         2.97872         4.97335
     2009.12251         1.56248         4.99571
     2009.12525         1.31624         4.97335
     2009.12799         3.63800         5.01092
     2009.13073         4.88576         5.00377
     2009.13347         0.87951         4.97603
     2009.13620        -5.48873         4.97693
     2009.13894        -3.78197         4.99482
     2009.14168        -4.25521         5.01003
     2009.14442        -5.33546         5.09681
     2009.14715        -3.66170         5.11381
     2009.14989        -8.66194         5.28290
     2009.15263         1.19082         4.98319
     2009.15537         0.24358         5.13349
     2009.15811        -3.04367         5.09323
     2009.16084        -3.71691         5.06997
     2009.16358         4.92285         5.08607
     2009.16632        -3.63939         5.07981
     2009.16906        -1.30264         5.21132
     2009.17180        -5.32288         5.14870
     2009.17453        -7.28512         5.14512
     2009.17727         5.47464         5.10754
     2009.18001        -8.07960         5.04045
     2009.18275        -7.26685         5.04045
     2009.18548        -6.17009         5.04402
     2009.18822        -9.48733         5.13349
     2009.19096        -3.50057         4.97693
     2009.19370        -2.23281         4.96619
     2009.19644         1.53394         4.94293
     2009.19917         0.19470         5.01987
     2009.20191         0.15546         5.11202
     2009.20465        -7.53078         5.13796
     2009.20625       -14.97359        13.13164
     2009.20898        -8.52683        12.80241
     2009.21195        -9.16776         8.37390
     2009.21469         2.64100         8.38106
     2009.21743         1.60675         8.24776
     2009.22016         7.13951         8.12698
     2009.22290        -8.95373         8.44279
     2009.22564        -5.73297         8.34259
     2009.22838        -5.15922         8.44458
     2009.23112        -7.15046         8.52510
     2009.23385        -6.56670         8.42400
     2009.23659        -8.82294         8.66466
     2009.23933        -0.32418         8.41416
     2009.24207        -5.85943         8.46426
     2009.24480        -7.75567         8.68524
     2009.24754        -6.31891         8.77381
     2009.25028        -9.89815         8.63514
     2009.25302       -13.13940         8.99837
     2009.25576         1.27736         8.62351
     2009.25849        -6.49388         8.86149
     2009.26123        -6.84812         8.79797
     2009.26397         2.62264         8.69508
     2009.26671        -2.64861         8.59041
     2009.26945        -5.84185         8.79439
     2009.27310         0.98616         5.05834
     2009.27583        -3.80708         5.11202
     2009.27857        -5.60832         5.12902
     2009.28131        -2.34056         5.06013
     2009.28405        -6.52181         5.13796
     2009.28679        -1.09705         5.19522
     2009.28952        -4.98829         5.07713
     2009.29226       -14.29453         5.21580
     2009.29500        -8.58178         5.21311
     2009.29774        -9.61702         5.21222
     2009.30047        -7.96626         5.22832
     2009.30321        -7.37950         5.24711
     2009.30595        -2.21674         5.24621
     2009.30869         0.98501         5.20059
     2009.31143         0.72977         5.15943
     2009.31416        -5.35647         5.26590
     2009.31690        -7.45771         5.19433
     2009.31964        -3.57296         5.15586
     2009.32238        -1.97120         5.07713
     2009.32512        -4.17144         5.24085
     2009.32785        -8.69668         5.15675
     2009.33059        -1.15192         5.02613
     2009.33333        -2.06017         5.06102
     2009.33607        -7.14941         5.12902
     2009.33880         1.13935         5.10307
     2009.34154        -7.53689         5.12902
     2009.34428        -4.74114         5.04045
     2009.34702        -3.38138         5.01719
     2009.34976        -1.63562         4.95903
     2009.35249        -1.90886         4.93040
     2009.35523        -7.21310         5.04134
     2009.35797        -5.96435         5.11470
     2009.36071        -6.51459         5.22385
     2009.36344        -2.26983         5.02166
     2009.36618        -1.29007         4.97782
     2009.36892         0.09469         5.01092
     2009.37166        -7.41556         5.07176
     2009.37440        -8.10480         5.00198
     2009.37713       -15.23604         5.10933
     2009.37987        -6.15828         5.24621
     2009.38261        -3.34053         5.03687
     2009.38535        -5.46477         5.05834
     2009.38809        -8.26801         5.05565
     2009.39111        -8.73486         5.57723
     2009.39356        -6.15549         5.00555
     2009.39630        -2.46074         5.02971
     2009.39904         2.78302         5.02166
     2009.40177        -1.93722         5.06013
     2009.40451         2.62254         4.96887
     2009.40725        -2.80571         4.97603
     2009.40999         1.59905         4.97872
     2009.41273        -5.13919         5.07355
     2009.41546         0.77757         5.09770
     2009.41820        -9.54067         5.15317
     2009.42094        -6.29992         5.10576
     2009.42368        -1.69916         5.08249
     2009.42642        -3.13840         5.04313
     2009.42915        -0.54464         5.08786
     2009.43189        -3.86189         5.03239
     2009.43463         3.00987         5.01271
     2009.43737         4.20563         5.01808
     2009.44010        -7.72261         5.06818
     2009.44284        -3.40785         5.05297
     2009.44558         2.77890         4.99750
     2009.44832         0.69166         5.11381
     2009.45106        -0.68758         5.08339
     2009.45379        -2.60182         5.04581
     2009.45653        -1.19106         5.04224
     2009.45927        -0.68731         5.04671
     2009.46201         3.67945         5.00555
     2009.46475         0.90021         5.25516
     2009.46748        -5.31003         5.24621
     2009.47022        -1.63528         5.08965
     2009.47296        -7.51952         5.12812
     2009.47570         2.05524         5.04671
     2009.47843        -1.35500         5.13259
     2009.48117        -3.60524         5.16122
     2009.48391         2.00951         5.04045
     2009.48665        -4.86473         5.15049
     2009.48939        -5.43097         5.19075
     2009.49212         4.46879         5.10844
     2009.49486        -5.39846         5.21401
     2009.49760         0.61930         5.11828
     2009.50034         0.17006         5.02971
     2009.50308         1.10682         5.07355
     2009.50581         5.28858         5.03060
     2009.50855         0.24433         5.08786
     2009.51129         0.36109         5.13528
     2009.51403         2.34485         5.07802
     2009.51676         1.00061         5.05476
     2009.51950         3.60336         5.01361
     2009.52224         1.16712         5.00555
     2009.52498        -6.40712         5.13975
     2009.52772         0.20364         5.06192
     2009.53045         5.85440         5.10218
     2009.53319         1.24615         5.08071
     2009.53593         3.78391         4.98677
     2009.53867         1.79967         5.05834
     2009.54141         4.50943         5.04045
     2009.54414         0.05419         5.14065
     2009.54688        -2.44006         5.10486
     2009.54962         3.79570         5.08339
     2009.55236         1.48846         5.04581
     2009.55509        12.09822         5.10307
     2009.55783         5.72097         5.01003
     2009.56057        -3.00527         5.32494
     2009.56331         1.26849         5.37147
     2009.56605         3.86325         5.50298
     2009.56878         3.38701         5.05297
     2009.57152         5.88076         5.09412
     2009.57426         4.16552         5.02255
     2009.57700         1.74628         5.40188
     2009.57974         6.19504         5.06102
     2009.58247         1.72479         5.11470
     2009.58521        -0.47245         5.25516
     2009.58795        -1.50369         5.06818
     2009.59069        -0.99693         5.27037
     2009.59342        -6.71117         5.25158
     2009.59616         7.45058         5.02345
     2009.59890         4.07734         5.07713
     2009.60164        -0.10390         5.14154
     2009.60438         3.91586         5.05655
     2009.60711        -2.37439         5.14154
     2009.60985        -1.83363         5.15407
     2009.61259         2.58513         5.04671
     2009.61533        -3.43311         5.06818
     2009.61807         2.43265         5.11470
     2009.62080        10.39840         4.98050
     2009.62354         1.34416         5.08428
     2009.62628         3.78092         5.12454
     2009.62902        -7.89832         5.34015
     2009.63175         3.27244         5.12275
     2009.63449        -4.74581         5.21580
     2009.63723        -7.21705         5.28737
     2009.63997         2.16471         5.10307
     2009.64271        -2.79553         5.19522
     2009.64544         2.80322         5.13349
     2009.64818         1.76898         5.26321
     2009.65092         0.36374         5.20327
     2009.65366        -3.15450         5.20685
     2009.65639        -6.08174         5.11739
     2009.65913        -9.63199         5.23458
     2009.66187         8.28977         4.97424
     2009.66461         2.69253         5.04313
     2009.66735         8.78229         5.09591
     2009.67008         7.83404         5.16391
     2009.67282       -10.82020         5.38578
     2009.67556         1.85856         5.16749
     2009.67830       -11.85168         5.60228
     2009.68104        -4.26892         5.33479
     2009.68377        -6.14717         5.16033
     2009.68651        10.22459         5.08607
     2009.68925        -3.54065         5.23190
     2009.69199        -0.11389         5.12991
     2009.69472         0.30186         5.11202
     2009.69746         3.97562         4.99124
     2009.70020         8.15438         5.09144
     2009.70294         6.45114         5.06639
     2009.70568         0.13490         5.04671
     2009.70841        -0.17035         5.05476
     2009.71115        -0.28859         5.10933
     2009.71389         9.79717         5.29542
     2009.71663       -18.59507         5.69533
     2009.71937         4.71069         5.20775
     2009.72210        -4.86956         5.15049
     2009.72484         1.27220         5.13617
     2009.72757         0.03495         5.20238
     2009.73032        -1.78728         5.22474
     2009.73305         1.46647         5.24532
     2009.73579         2.42923         5.20417
     2009.73853         7.47799         5.07534
     2009.74127         6.67275         5.14870
     2009.74401         4.88751         5.23548
     2009.74674         7.58926         5.17912
     2009.74948         2.79502         5.01987
     2009.75222        -9.02222         5.20059
     2009.75496         4.17854         4.95814
     2009.75770         6.86529         4.92235
     2009.76043         2.20205         5.02613
     2009.76317        -0.61319         5.08786
     2009.76591         6.44657         4.96530
     2009.76865         6.99233         5.09502
     2009.77138         3.31008         5.12096
     2009.77412         0.78284         5.05655
     2009.77686         3.83960         5.10933
     2009.77960         6.52336         5.21222
     2009.78234        11.48511         5.15943
     2009.78507         7.92287         5.19433
     2009.78781         4.51363         5.32137
     2009.79055        -8.81661         5.39025
     2009.79329       -18.31185         5.67654
     2009.79603        -1.67910         5.25158
     2009.79876         9.97466         5.02434
     2009.80150        -0.00258         5.18001
     2009.80424         3.74718         5.32047
     2009.80698        -0.31106         5.28021
     2009.80971        -0.28831         5.51729
     2009.81245        15.07745         5.15049
     2009.81519         6.96621         5.08876
     2009.81793         2.30997         5.22743
     2009.82067         2.89972         5.23101
     2009.82340         3.84948         5.04224
     2009.82614        -2.51676         5.29095
     2009.82888        -2.58200         5.29810
     2009.83162       -21.94424         5.73738
     2009.83436        -0.32749         5.04671
     2009.83709         1.25827         5.12007
     2009.83983         0.77203         5.21938
     2009.84257         6.76679         5.12096
     2009.84531         7.75154         5.24979
     2009.84804         4.81830         5.40904
     2009.85078         7.38506         5.26411
     2009.85346         6.29574         5.53161
     2009.85626         3.90758         5.25963
     2009.85900        -4.89467         5.46630
     2009.86173         3.19209         5.21669
     2009.86447         9.86885         5.44214
     2009.86721         6.27161         5.37773
     2009.86995         4.16236         5.26590
     2009.87269         8.58012         5.22295
     2009.87542        10.57388         5.17196
     2009.87816        10.58164         5.25069
     2009.88090         9.07240         5.26321
     2009.88364         6.48815         5.25427
     2009.88637         4.72491         5.24532
     2009.88911         9.88067         5.17912
     2009.89185        -0.18357         5.46540
     2009.89459        -1.39081         5.19969
     2009.89733        -4.03706         5.13707
     2009.90006        -7.40830         5.29632
     2009.90280        -0.90654         5.22832
     2009.90554         4.81422         5.25516
     2009.90828        -1.35803         5.25695
     2009.91102        -3.35327         5.16391
     2009.91375        -3.89451         5.22743
     2009.91649        -0.30575         5.21580
     2009.91923       -12.45399         5.28290
     2009.92197        -5.05724         5.17822
     2009.92470        -6.43848         4.98408
     2009.92744        -6.34472         5.04313
     2009.93018        -6.72696         4.99213
     2009.93292         0.94379         4.99661
     2009.93566        -0.06945         5.08249
     2009.93839         2.34731         5.26948
     2009.94113         3.47307         5.02971
     2009.94387         2.44383         5.13259
     2009.94661         4.30058         5.09681
     2009.94935         5.07334         5.22564
     2009.95208        -2.70790         5.03866
     2009.95482        -7.66114         5.19611
     2009.95756        -2.64539         5.12365
     2009.96030        -5.72563         5.12723
     2009.96303        -9.06787         5.12454
     2009.96577        -2.78611         5.08071
     2009.96851        -9.26135         5.24621
     2009.97125         0.47340         5.12544
     2009.97399         3.58116         5.07623
     2009.97672        -7.99808         4.96708
     2009.97946       -12.15532         4.98498
     2009.98220        -7.05856         5.01629
     2009.98494        -2.21581         4.98766
     2009.98767         0.04895         4.92951
     2009.99041         0.42971         4.90178
     2009.99315        -3.09753         4.93935
     2009.99589         2.69422         4.89999
     2009.99863       -11.09902         5.07981
     2010.00410        -1.84050         4.99571
     2010.00684       -16.34274         5.04134
     2010.00958       -13.88799         5.20059
     2010.01232       -14.78823         5.13617
     2010.01505       -12.20347         5.08607
     2010.01779        -9.64271         5.08428
     2010.02053       -12.85396         5.17733
     2010.02327       -14.84120         5.12007
     2010.02600        -7.44044         5.02613
     2010.02874        -6.84768         5.02434
     2010.03148        -1.33892         5.00108
     2010.03422        -1.51417         5.08518
     2010.03696       -10.30141         5.41799
     2010.03969       -10.49665         5.26948
     2010.04243        -9.48689         5.14870
     2010.04517         2.24686         5.12633
     2010.04791         4.76762         5.09323
     2010.05065         4.54938         5.14423
     2010.05338         5.57714         5.20775
     2010.05886         5.43665         4.97693
     2010.06160        -0.45759         4.94114
     2010.06433       -14.20083         5.03776
     2010.06707        -7.70107         5.05387
     2010.06981        -6.38331         5.01719
     2010.07255        -7.36356         5.14959
     2010.07529        -4.93580         5.20417
     2010.07802        -7.05404         5.02255
     2010.08076        -2.22728         5.03329
     2010.08350         0.58647         4.94472
     2010.08624        -3.23277         5.06550
     2010.08898         9.91599         5.16122
     2010.09171         5.35575         4.98677
     2010.09445         3.92451         5.16301
     2010.09719         9.51226         5.04850
     2010.09993         2.72302         4.93219
     2010.10266         0.60278         5.01808
     2010.10540         0.86054         5.10665
     2010.10814         2.52329         5.13259
     2010.11088        -0.96095         5.17106
     2010.11362        -2.21219         5.17554
     2010.11635        -2.65543         5.14691
     2010.11909        -8.31367         5.20953
     2010.12183        -3.55992         5.14244
     2010.12457        -2.36016         5.04492
     2010.12731        -2.06740         5.21580
     2010.13004        -4.85264         5.12096
     2010.13278        -0.56389         5.01897
     2010.13552        -2.07413         5.09144
     2010.13826         1.55963         5.01092
     2010.14099        -2.45761         4.98408
     2010.14373         3.76815         5.17106
     2010.14647        -0.95710         5.22385
     2010.14921         6.74266         5.04581
     2010.15195        -2.10958         5.07086
     2010.15468         2.03018         5.01719
     2010.15742        -0.83706         5.05923
     2010.16016         3.48869         4.95635
     2010.16290         0.55345         5.04581
     2010.16564        -1.10579         5.09144
     2010.16837        -1.96603         5.04492
     2010.17111         3.18772         4.94382
     2010.17385        -5.47852         5.09412
     2010.17659         1.23624         4.96619
     2010.17932         7.89100         4.98856
     2010.18206        -1.52624         5.01450
     2010.18480         1.76751         5.00108
     2010.18754         5.04927         5.03329
     2010.19028         6.42503         4.95724
     2010.19301        -0.68521         5.05118
     2010.19575         0.55654         5.05744
     2010.19849        -5.78670         5.05923
     2010.20123        -4.13194         5.05655
     2010.20397        -2.67218         5.16033
     2010.20670        -9.06742         5.24532
     2010.20944        -5.08367         5.01361
     2010.21218        -3.59191         5.08607
     2010.21492        -0.70115         5.06281
     2010.21765        -8.09139         5.20953
     2010.22039        -0.31864         5.03687
     2010.22313        -4.24788         5.01808
     2010.22587        -4.24512         5.11560
     2010.22861         1.27264         5.16480
     2010.23134         2.27540         5.09770
     2010.23408        -0.06085         5.03508
     2010.23956         2.33667         5.19254
     2010.24230        -1.99457         5.41888
     2010.24503         2.16319         5.19164
     2010.24777         0.05294         5.16391
     2010.25051         2.68870         5.33210
     2010.25325        -0.41154         5.20148
     2010.25598         8.84822         5.07444
     2010.25872         7.13597         5.20506
     2010.26146         7.29273         5.35268
     2010.26420         6.37449         5.45825
     2010.26694         3.55125         5.38399
     2010.26967         5.24801         5.42336
     2010.27241         9.19676         5.31689
     2010.27509         3.62744         5.32226
     2010.27789         0.29428         5.20327
     2010.28062         3.85704         5.10039
     2010.28336        -0.88721         5.15764
     2010.28610         0.23655         5.37325
     2010.28884         7.54631         5.21580
     2010.29158         3.61407         5.41530
     2010.29431        12.17983         5.39473
     2010.29705         9.99058         5.24800
     2010.29979        10.31934         5.31868
     2010.30253        12.55610         5.31868
     2010.30527        11.28586         5.42246
     2010.30800         9.76161         5.26053
     2010.31074         9.04337         5.30526
     2010.31348        10.61313         5.21580
     2010.31622        14.49689         5.23995
     2010.31895        13.52765         5.30884
     2010.32169        11.32640         5.35357
     2010.32443        11.67616         5.27663
     2010.32717        12.87592         5.18091
     2010.32991         9.68968         5.22832
     2010.33264        14.70444         5.15496
     2010.33538        11.57019         5.43856
     2010.33812         8.08995         5.26321
     2010.34086         2.26971         5.20775
     2010.34360         5.13547         5.12991
     2010.34633         6.03922         5.26053
     2010.34907         3.15398         5.20327
     2010.35181         7.89674         5.24711
     2010.35455        10.30550         5.20417
     2010.35728         5.93126         5.12454
     2010.36002        10.44401         5.21580
     2010.36276         9.17277         5.13886
     2010.36550        10.69153         5.46361
     2010.36824         5.44029         5.46540
     2010.37097         8.36604         5.20596
     2010.37371         8.10680         5.20417
     2010.37645         7.94956         5.25427
     2010.37919         3.99332         5.42514
     2010.38193        -3.00392         5.49493
     2010.38466         3.20383         5.18448
     2010.38740         8.24459         5.02971
     2010.39014         2.03635         5.08160
     2010.39288         4.55111         5.14065
     2010.39561        -1.65314         5.31421
     2010.39835         2.98062         5.25874
     2010.40109         2.37838         5.03239
     2010.40383         0.92714         5.01361
     2010.40657         7.40090         5.09770
     2010.40930        -7.38535         5.35894
     2010.41204        -1.03359         5.07176
     2010.41478         9.61417         4.94651
     2010.41752         2.42893         5.04581
     2010.42026         4.49469         5.01987
     2010.42299         7.80944         4.99124
     2010.42573         0.93520         4.96440
     2010.42847        -6.17204         5.06907
     2010.43121        -4.29528         4.98587
     2010.43394         3.54647         4.94830
     2010.43668        -5.78577         5.04492
     2010.43942         3.54499         4.96708
     2010.44216         2.62875         4.89820
     2010.44490         1.22751         4.87762
     2010.44763        -3.87374         4.99929
     2010.45037        -3.28898         4.96887
     2010.45311        -1.90022         4.97961
     2010.45585        -1.47746         4.99571
     2010.45859         1.81729         5.02792
     2010.46132         3.27605         5.03508
     2010.46406         3.47581         4.92861
     2010.46680        -4.57243         4.96530
     2010.46954         1.52833         4.96530
     2010.47227        -0.45392         4.94919
     2011.29911       314.34594         4.72374
     2011.30184       317.18170         4.87941
     2011.30458       309.87946         4.72374
     2011.30732       315.35222         4.75684
     2011.31006       318.18297         4.74790
     2011.31279       311.87173         4.76489
     2011.31553       317.32549         4.72553
     2011.31827       317.41925         4.77026
     2011.32101       313.27101         4.73895
     2011.32375       308.91176         4.74253
     2011.32648       306.96252         4.70316
     2011.32922       302.09628         4.73090
     2011.33196       307.26604         4.77831
     2011.33470       302.94679         4.81857
     2011.33744       309.93555         4.80605
     2011.34017       310.57731         4.91341
     2011.34291       310.22707         4.88299
     2011.34565       314.48883         4.81142
     2011.34839       312.24658         4.82305
     2011.35112       309.65434         4.82215
     2011.35386       309.90110         4.81857
     2011.35660       311.11586         4.71748
     2011.35934       297.68861         4.77295
     2011.36208       302.76637         4.75147
     2011.36481       304.29213         4.78368
     2011.36755       313.90889         4.72016
     2011.37029       309.36765         4.81589
     2011.37303       311.28240         4.79173
     2011.37577       314.30716         4.73090
     2011.37850       306.49192         4.74432
     2011.38124       307.48468         4.74521
     2011.38398       309.15644         4.76847
     2011.38672       308.48419         4.74342
     2011.38945       310.02495         4.73090
     2011.39219       313.48671         4.78010
     2011.39493       307.45147         4.80784
     2011.39767       312.23122         4.75684
     2011.40041       313.48898         4.77205
     2011.40314       309.01674         4.73627
     2011.40588       313.02550         4.71032
     2011.40862       314.93026         4.81768
     2011.41136       309.37901         4.88567
     2011.41410       307.93477         4.75416
     2011.41683       314.43453         4.85436
     2011.41957       311.17229         4.85168
     2011.42231       305.46304         4.72821
     2011.42505       311.63080         4.90804
     2011.42778       311.32956         4.86778
     2011.43052       313.01132         4.78189
     2011.43326       309.33308         4.76132
     2011.43600       309.05883         4.71032
     2011.43874       307.78459         4.88567
     2011.44147       309.19335         4.87046
     2011.44421       311.70111         4.77563
     2011.44695       313.09286         4.86420
     2011.44969       309.32262         4.83110
     2011.45243       308.96938         4.71479
     2011.45516       310.84114         4.74342
     2011.45790       307.49590         4.75595
     2011.46064       312.41665         4.78010
     2011.46338       307.08741         4.73448
     2011.46611       309.37217         4.72195
     2011.46885       312.88193         4.77026
     2011.47058       311.00830        10.75277
     2011.47433       314.95044         4.81499
     2011.47707       318.43320         4.77831
     2011.47980       319.24496         4.74253
     2011.48254       316.39272         4.72821
     2011.48528       316.07047         4.81499
     2011.48802       315.13323         4.77295
     2011.49076       320.50399         4.83647
     2011.49349       309.78075         4.81678
     2011.49623       317.32251         4.74253
     2011.49897       318.70826         4.78279
     2011.50171       313.80202         4.81857
     2011.50444       313.79078         4.76668
     2011.50718       316.19054         4.81857
     2011.50992       317.86929         4.78905
     2011.51266       311.88105         4.83020
     2011.51540       315.02781         4.77295
     2011.51813       319.67157         4.88120
     2011.52087       319.15433         4.90446
     2011.52361       317.34308         4.80426
     2011.52635       310.18884         4.79263
     2011.52908       319.28060         4.83378
     2011.53182       316.64936         4.76668
     2011.53456       316.85411         4.77831
     2011.53730       316.02087         4.75774
     2011.54004       313.96563         4.75326
     2011.54277       312.15639         4.76400
     2011.54551       316.60115         4.74074
     2011.54825       314.46290         4.81499
     2011.55099       320.60566         4.82931
     2011.55373       316.97842         4.87851
     2011.55646       315.66118         4.86509
     2011.55920       316.82794         4.79084
     2011.56194       320.97869         4.91609
     2011.56468       320.09045         4.74790
     2011.56741       321.73321         4.76847
     2011.57015       316.63097         4.81857
     2011.57289       317.56272         4.73895
     2011.57563       323.97248         4.76132
     2011.57837       317.44624         4.80784
     2011.58110       318.01700         4.74074
     2011.58384       313.77576         4.84720
     2011.58658       320.99351         5.01540
     2011.58932       318.09927         4.84631
     2011.59206       313.80203         4.88299
     2011.59479       321.08679         4.85794
     2011.59753       321.19154         4.77921
     2011.60027       316.91730         4.76579
     2011.60301       317.65506         4.79173
     2011.60574       321.51082         4.82394
     2011.60848       320.06458         4.88478
     2011.61122       320.46333         4.85794
     2011.61396       316.33709         4.89283
     2011.61670       324.37185         4.81321
     2011.61943       323.36961         4.83647
     2011.62217       322.19636         4.83020
     2011.62491       321.04412         4.87494
     2011.62765       317.84688         4.88030
     2011.63039       320.02464         4.80963
     2011.63312       324.44540         4.83468
     2011.63586       323.54215         4.76668
     2011.63860       319.61491         5.01182
     2011.64134       328.09167         5.03776
     2011.64407       322.93443         4.86509
     2011.64681       324.97319         4.77652
     2011.64955       322.86394         4.91430
     2011.65229       317.51170         4.84899
     2011.65503       323.92346         4.86957
     2011.65776       322.15422         4.90625
     2011.66050       326.38997         4.81678
     2011.66324       325.39073         4.84273
     2011.66598       318.20549         4.94561
     2011.66872       318.56425         4.94830
     2011.67145       323.17201         4.78100
     2011.67419       324.93876         4.80784
     2011.67693       326.23552         4.82126
     2011.67860       316.95882        10.05405
     2011.68240       318.67104         4.86420
     2011.68514       320.60779         4.84989
     2011.68788       317.10455         4.92772
     2011.69062       325.96331         4.90714
     2011.69336       321.97107         4.75774
     2011.69609       317.32083         4.84362
     2011.69883       323.63058         4.81768
     2011.70157       322.56634         4.79442
     2011.70431       327.56510         4.82126
     2011.70705       323.56386         4.92951
     2011.70978       317.84261         4.90535
     2011.71252       328.25837         4.90356
     2011.71526       318.35213         4.89999
     2011.71800       324.56789         4.86241
     2011.72073       325.18365         4.84183
     2011.72347       323.19040         5.04134
     2011.72621       328.99816         4.83289
     2011.72895       322.87692         4.80068
     2011.73169       318.75368         5.20059
     2011.73442       323.79044         4.92146
     2011.73716       325.12819         5.02255
     2011.73990       317.64995         4.76668
     2011.74264       324.23371         4.73627
     2011.74538       327.76447         4.95635
     2011.74811       330.94222         4.87046
     2011.75085       324.59298         4.82305
     2011.75359       323.11374         4.86152
     2011.75633       333.37350         4.81410
     2011.75906       333.12326         4.87136
     2011.76180       324.48801         4.79621
     2011.76454       323.94877         4.79979
     2011.76728       317.51653         4.85973
     2011.77002       320.74529         4.97335
     2011.77275       330.04404         4.94382
     2011.77549       329.84780         4.91698
     2011.77823       323.43756         4.95188
     2011.78097       318.45632         4.85794
     2011.78371       325.28708         4.89820
     2011.78644       327.84283         4.83647
     2011.78918       315.83459         4.87225
     2011.79192       316.26335         4.87494
     2011.79466       312.65911         4.85436
     2011.79739       322.98686         4.88657
     2011.80013       325.95362         4.80694
     2011.80287       325.13838         4.82663
     2011.80561       321.80414         4.88030
     2011.80835       324.80290         4.93040
     2011.81108       326.46465         4.86152
     2011.81382       313.91941         5.00824
     2011.81656       317.57817         4.79621
     2011.81930       320.73193         4.78547
     2011.82203       320.80869         4.86957
     2011.82477       327.67844         4.82215
     2011.82751       310.73420         4.94651
     2011.83025       317.61896         4.78547
     2011.83299       315.74272         4.78994
     2011.83572       312.16347         4.88836
     2011.83846       317.13323         4.78368
     2011.84120       322.40499         4.79621
     2011.84394       320.68575         4.75237
     2011.84668       320.80851         4.84541
     2011.84941       317.66626         4.80247
     2011.85215       316.39402         4.78189
     2011.85489       314.41678         4.86062
     2011.85763       319.40254         4.88299
     2011.86036       325.10529         4.83826
     2011.86310       325.45305         4.86152
     2011.86584       328.38881         4.81678
     2011.86858       330.87957         4.78905
     2011.87132       320.06433         4.75416
     2011.87405       313.55108         4.78726
     2011.87679       322.87584         4.89193
     2011.87953       323.52060         4.84273
     2011.88227       323.54636         4.79889
     2011.88501       322.08911         4.81052
     2011.88774       316.88287         4.87404
     2011.89048       322.60563         4.83199
     2011.89322       324.78439         4.86778
     2011.89596       316.84115         4.81052
     2011.89869       319.08490         4.84004
     2011.90143       314.81966         4.81857
     2011.90417       308.69842         4.98408
     2011.90691       316.15618         4.82215
     2011.90965       314.90294         4.76042
     2011.91238       313.34669         4.87225
     2011.91512       310.37545         4.80157
     2011.91786       318.27521         4.95724
     2011.92060       310.42197         4.80963
     2011.92334       306.68472         4.90893
     2011.92607       309.02948         4.88746
     2011.92881       312.24824         4.93756
     2011.93155       315.70700         4.88299
     2011.93429       315.43176         4.88478
     2011.93702       316.45251         4.78189
     2011.93976       318.03227         4.80605
     2011.94250       321.55803         4.77563
     2011.94524       315.63579         4.75326
     2011.94798       319.97754         4.76758
     2011.95071       319.31530         4.75684
     2011.95345       318.82706         4.88030
     2011.95619       315.98182         4.94561
     2011.95893       313.52658         4.83020
     2011.96167       320.09933         5.00913
     2011.96440       313.54009         4.81052
     2011.96714       316.84485         4.82305
     2011.96988       318.31661         4.76132
     2011.97262       313.51136         4.76489
     2011.97535       316.06612         4.78279
     2011.97809       313.56788         4.79352
     2011.98083       314.37364         4.82305
     2011.98357       319.41140         4.79263
     2011.98631       320.61315         4.80247
     2011.98904       320.70591         4.86420
     2011.99178       323.68267         4.93309
     2011.99452       323.32543         4.81947
     2011.99726       316.96219         4.74611
     2012.00273       319.31970         4.80605
     2012.00547       319.44946         4.78816
     2012.00821       318.73222         4.78010
     2012.01095       321.42197         4.86331
     2012.01368       316.71773         4.72464
     2012.01642       319.84949         4.72195
     2012.01916       320.12325         4.74700
     2012.02190       316.37301         4.82573
     2012.02464       318.02376         4.75774
     2012.02737       315.62352         4.72285
     2012.03011       316.51728         4.72553
     2012.03285       315.81604         4.76489
     2012.03559       312.78879         4.76221
     2012.03833       314.17055         4.74879
     2012.04106       317.24131         4.72821
     2012.04380       317.64407         4.74163
     2012.04654       319.94183         4.73090
     2012.04928       309.75858         4.76489
     2012.05201       301.45034         4.79800
     2012.05475       329.57210         4.82663
     2012.05749       322.66286         4.76847
     2012.06023       320.12361         4.80963
     2012.06297       319.03737         4.81857
     2012.06570       315.67313         4.85436
     2012.06844       310.86389         4.82752
     2012.07118       310.89465         4.74074
     2012.07392       312.93240         4.72195
     2012.07666       318.81516         4.75953
     2012.07939       320.92992         4.73358
     2012.08213       319.70368         4.73537
     2012.08487       317.35044         4.75505
     2012.08761       307.70819         4.75326
     2012.09034       314.96995         4.69780
     2012.09308       315.47671         4.88567
     2012.09582       317.61947         4.75863
     2012.09856       314.58222         4.74611
     2012.10130       321.44698         4.85525
     2012.10403       318.43674         4.80247
     2012.10677       312.32650         4.84004
     2012.10951       320.17826         4.87851
     2012.11225       313.77501         4.79531
     2012.11498       315.61277         4.80426
     2012.11731       318.31797         5.86621
     2012.12046       321.73129         4.79352
     2012.12320       316.82404         4.77384
     2012.12594       311.99180         4.73716
     2012.12867       312.40556         4.73716
     2012.13141       315.73032         4.75595
     2012.13415       315.70708         4.72464
     2012.13689       315.02583         4.75863
     2012.13963       320.85359         4.86688
     2012.14236       317.97235         4.86420
     2012.14510       311.08911         4.77563
     2012.14784       311.73886         4.77384
     2012.15058       317.56962         4.76937
     2012.15331       306.20738         4.76937
     2012.15605       310.17014         4.82126
     2012.15879       312.61690         4.84004
     2012.16153       317.25765         4.76489
     2012.16427       315.87341         4.85346
     2012.16700       313.36517         4.82305
     2012.16974       309.84793         4.82305
     2012.17248       310.69669         4.79531
     2012.17522       317.17944         4.84810
     2012.17796       311.85320         4.81678
     2012.18069       312.71996         4.84541
     2012.18343       310.11472         4.83110
     2012.18617       311.21547         4.90267
     2012.18891       313.28923         4.83110
     2012.19164       318.27199         4.80336
     2012.19438       321.21375         4.82305
     2012.19712       314.30751         4.78994
     2012.19986       315.97526         4.82215
     2012.20260       319.96102         4.78189
     2012.20533       320.95678         4.77295
     2012.20807       318.49254         4.67364
     2012.21081       310.85329         4.63785
     2012.21355       316.75105         4.61907
     2012.21629       315.91881         4.67453
     2012.21902       312.90757         4.61370
     2012.22176       306.61033         4.73895
     2012.22450       308.10708         4.75326
     2012.22724       310.15184         4.76579
     2012.22997       313.64160         4.70585
     2012.23271       317.02436         4.75416
     2012.23545       316.93311         4.66738
     2012.23819       320.57487         4.80336
     2012.24093       315.68563         4.66290
     2012.24366       318.53939         4.66469
     2012.24640       313.57715         4.75326
     2012.24914       316.97890         4.78547
     2012.25188       310.35966         4.74969
     2012.25462       314.62542         4.79621
     2012.25735       313.50718         4.76042
     2012.26009       308.60594         4.73269
     2012.26283       307.82069         4.75863
     2012.26557       305.76345         4.74700
     2012.26830       307.97821         4.73984
     2012.27104       308.38297         4.84094
     2012.27378       312.92072         4.74521
     2012.27652       313.47748         4.73090
     2012.27926       315.29824         4.91430
     2012.28199       309.97000         4.75953
     2012.28473       312.46676         4.76042
     2012.28747       311.53551         4.75595
     2012.29021       312.20627         4.78547
     2012.29295       308.77203         4.75237
     2012.29568       307.31779         4.75595
     2012.29842       308.46254         4.80157
     2012.30116       307.54630         4.75953
     2012.30390       304.47806         4.62980
     2012.30663       307.03982         4.58239
     2012.30937       310.17158         4.64859
     2012.31211       316.73433         4.86420
     2012.31485       313.35809         4.89730
     2012.31759       311.52485         4.80157
     2012.32032       307.56561         4.75595
     2012.32306       307.72736         4.67990
     2012.32580       306.20312         4.67096
     2012.32854       314.78688         4.74611
     2012.33128       313.20964         4.81678
     2012.33401       311.12540         4.79710
     2012.33675       312.87215         4.69511
     2012.33949       308.62191         4.72642
     2012.34223       304.55267         4.66201
     2012.34496       300.19443         4.68974
     2012.34770       306.25119         4.75416
     2012.35044       311.20094         4.71390
     2012.35318       310.47070         4.67543
     2012.35592       310.45146         4.69780
     2012.35865       305.86122         4.71927
     2012.36139       307.55197         4.69422
     2012.36413       310.07273         4.67275
     2012.36687       312.86349         4.66290
     2012.36961       310.97225         4.68080
     2012.37234       315.90601         4.72464
     2012.37508       314.01776         4.71748
     2012.37782       310.72152         4.86062
     2012.38056       306.48528         4.67722
     2012.38329       310.79904         4.79800
     2012.38603       314.07679         4.82484
     2012.38877       308.20755         4.90983
     2012.39151       314.05331         4.79621
     2012.39425       311.25607         4.73716
     2012.39698       311.58983         4.90714
     2012.39972       312.60758         4.75684
     2012.40246       308.93534         4.68348
     2012.40520       311.89010         4.72642
     2012.40794       312.62286         4.66469
     2012.41067       312.58961         4.76311
     2012.41341       311.11437         4.72642
     2012.41615       310.25413         4.92056
     2012.41889       313.04889         4.91430
     2012.42162       312.43665         4.81768
     2012.42436       313.78240         4.77652
     2012.42710       314.59416         4.76579
     2012.42984       316.85492         4.73090
     2012.43258       309.93068         4.85794
     2012.43531       309.39444         4.81052
     2012.43805       308.57619         4.74432
     2012.44079       302.05495         4.76132
     2012.44353       308.55271         4.76489
     2012.44626       311.84947         4.78189
     2012.44900       309.11622         4.74790
     2012.45174       311.81798         4.79979
     2012.45448       311.30674         4.79800
     2012.45722       313.98150         4.82484
     2012.45995       313.97626         4.83110
     2012.46269       313.83001         4.78368
     2012.46543       309.35977         4.75684
     2012.46817       313.06853         4.77921
     2012.47091       310.74829         4.81410
     2012.47364       312.41304         4.77384
     2012.47638       316.00180         4.82305
     2012.47912       314.53456         4.77205
     2012.48186       312.94232         4.78458
     2012.48459       316.02408         4.80515
     2012.48733       303.46383         4.75684
     2012.49007       318.55059         4.75953
     2012.49281       313.50535         4.75684
     2012.49555       311.38811         4.81947
     2012.49828       314.80786         4.79621
     2012.50102       320.97362         4.79084
     2012.50376       316.10138         4.78994
     2012.50650       312.33314         4.74074
     2012.50924       316.43690         4.88746
     2012.51197       317.70765         4.85973
     2012.51471       311.13941         4.79352
     2012.51745       318.96517         4.83736
     2012.52019       318.68793         4.89193
     2012.52292       309.37669         4.77116
     2012.52566       313.01644         4.79800
     2012.52840       317.42320         4.76579
     2012.53114       316.25896         4.96440
     2012.53388       315.30572         4.87762
     2012.53661       317.59247         4.91788
     2012.53935       324.63623         4.92951
     2012.54209       323.80399         4.79800
     2012.54483       321.95375         4.80963
     2012.54757       321.69451         4.77295
     2012.55030       322.55926         4.97693
     2012.55304       320.67402         4.75595
     2012.55578       316.01178         4.78547
     2012.55852       311.47654         4.74253
     2012.56125       317.19729         4.75774
     2012.56399       317.43005         4.74611
     2012.56673       313.66581         4.75505
     2012.56947       317.86557         4.78994
     2012.57221       319.34733         4.76132
     2012.57494       318.50208         4.77563
     2012.57768       316.89684         4.78189
     2012.58042       318.94160         4.72821
     2012.58316       318.18136         4.80784
     2012.58590       315.12811         4.77205
     2012.58863       319.51087         4.74879
     2012.59137       323.04763         4.78994
     2012.59411       322.28539         4.74790
     2012.59685       324.40515         4.83289
     2012.59958       317.62990         4.76579
     2012.60232       315.19166         4.95545
     2012.60506       318.51342         4.74879
     2012.60780       319.61318         4.74700
     2012.61054       324.54394         4.76132
     2012.61327       323.13869         4.75505
     2012.61601       324.10745         4.78100
     2012.61875       323.11021         4.83110
     2012.62149       324.04597         4.78726
     2012.62423       324.68072         4.77652
     2012.62696       327.24948         4.82215
     2012.62970       319.10624         4.78637
     2012.63244       325.01800         4.89730
     2012.63518       324.80076         4.79531
     2012.63791       322.53751         4.90804
     2012.64065       324.58127         4.85615
     2012.64339       327.16803         4.78279
     2012.64613       324.33779         4.75237
     2012.64887       325.54954         4.77563
     2012.65160       326.04130         4.84094
     2012.65434       325.16806         4.89551
     2012.65708       325.10382         4.98498
     2012.65982       322.49058         4.88299
     2012.66256       321.63933         4.78905
     2012.66529       324.32309         4.75953
     2012.66803       326.19585         4.78100
     2012.67077       318.47761         4.78905
     2012.67351       322.61436         4.78010
     2012.67624       323.64712         4.77742
     2012.67898       325.45188         4.76221
     2012.68172       326.59864         4.80247
     2012.68446       324.66440         4.81231
     2012.68720       323.21915         4.77384
     2012.68993       327.75991         4.81768
     2012.69267       328.56467         4.90804
     2012.69541       320.52143         4.76311
     2012.69815       321.00419         4.88657
     2012.70089       316.88694         4.77921
     2012.70362       318.88470         4.77474
     2012.70636       315.61346         4.75237
     2012.70910       320.71922         4.82305
     2012.71184       323.47797         4.79084
     2012.71457       326.08673         4.77563
     2012.71731       324.17549         4.75953
     2012.72005       325.10725         4.73984
     2012.72279       325.35901         4.75147
     2012.72553       330.25676         4.78994
     2012.72826       323.63452         4.80157
     2012.73100       323.30728         4.90535
     2012.73374       323.80904         4.94382
     2012.73648       321.87779         4.77295
     2012.73921       327.72555         4.86688
     2012.74195       325.32831         4.93846
     2012.74475       324.85215         4.95993
     2012.74743       325.17183         4.82036
     2012.75017       320.54558         4.86778
     2012.75290       331.76934         4.97424
     2012.75564       317.76310         4.74342
     2012.75838       320.71786         4.75684
     2012.76112       322.40461         4.76400
     2012.76386       325.00437         4.75505
     2012.76659       329.31013         4.79084
     2012.76933       326.92389         4.74969
     2012.77207       322.13065         4.76221
     2012.77481       320.05540         4.72464
     2012.77754       323.11716         4.65485
     2012.78028       325.71992         4.75416
     2012.78302       321.18668         4.89104
     2012.78576       321.25944         4.75774
     2012.78850       334.16819         4.84631
     2012.79123       328.93495         4.93756
     2012.79397       318.51371         4.79084
     2012.79671       320.80847         4.79352
     2012.79945       323.45522         5.20506
     2012.80219       324.79298         4.87225
     2012.80492       325.77474         4.80157
     2012.80766       316.13550         4.79800
     2012.81040       322.00126         4.81052
     2012.81314       318.34701         4.80784
     2012.81587       319.60777         4.76221
     2012.81861       310.57253         4.85078
     2012.82135       318.02229         4.89730
     2012.82409       316.42104         5.00555
     2012.82683       318.23780         4.93846
     2012.82956       313.31156         4.85346
     2012.83230       326.87532         4.79710
     2012.83504       317.21108         4.80605
     2012.83778       316.41483         4.80157
     2012.84052       317.00259         4.88120
     2012.84325       315.83535         4.88567
     2012.84599       313.98411         5.03150
     2012.84873       310.21386         4.94740
     2012.85147       307.47362         5.10665
     2012.85420       307.97238         4.83289
     2012.85694       312.36114         4.85973
     2012.85968       315.73790         4.87136
     2012.86242       315.36265         4.83289
     2012.86516       322.19741         4.81052
     2012.86789       316.94217         4.95456
     2012.87063       316.95693         4.81410
     2012.87337       311.83169         4.87851
     2012.87611       317.69644         4.89551
     2012.87885       325.32520         4.80157
     2012.88158       322.01696         4.83468
     2012.88432       322.48672         4.83647
     2012.88706       323.31147         5.05655
     2012.88980       329.36623         5.01629
     2012.89253       316.20599         4.81857
     2012.89527       320.73875         4.84810
     2012.89801       313.70651         4.91788
     2012.90075       316.89426         4.79442
     2012.90349       311.37202         4.80963
     2012.90622       316.23278         4.85346
     2012.90896       316.87254         4.92146
     2012.91170       323.45429         4.88836
     2012.91444       322.36105         4.81678
     2012.91718       327.81581         4.78726
     2012.91991       318.62757         4.86241
     2012.92265       324.41533         4.88388
     2012.92539       320.78208         4.81768
     2012.92813       319.68484         4.82036
     2012.93086       315.45860         4.88209
     2012.93360       315.51736         4.87494
     2012.93634       314.75311         4.79710
     2012.93908       309.96087         4.81947
     2012.94182       316.47163         4.79979
     2012.94455       321.62139         4.78010
     2012.94729       320.97215         4.86062
     2012.95003       318.52490         4.88925
     2012.95277       321.42366         4.79084
     2012.95551       324.51942         4.77563
     2012.95824       325.81518         4.74432
     2012.96098       326.84894         4.88567
     2012.96372       320.93569         4.88120
     2012.96646       323.71545         4.76758
     2012.96919       323.00021         4.87583
     2012.97193       314.70997         4.83736
     2012.97467       321.53172         4.76489
     2012.97741       320.31748         4.77563
     2012.98015       316.28624         4.73537
     2012.98288       316.93900         4.74163
     2012.98562       318.44376         4.74163
     2012.98836       316.96251         4.76132
     2012.99110       319.38327         4.75595
     2012.99384       317.23903         4.76311
     2012.99657       317.43379         4.73448
     2012.99931       316.82554         4.75237
     2013.00205       313.76730         4.76847
     2013.00479       317.79706         4.76937
     2013.00752       313.67982         4.76937
     2013.01026       313.22558         4.76758
     2013.01300       317.07733         4.78637
     2013.01574       318.45809         4.77563
     2013.01848       316.35985         4.81678
     2013.02121       316.23061         4.81857
     2013.02395       315.81636         4.80157
     2013.02669       317.91012         4.89999
     2013.02943       315.08188         4.80247
     2013.03216       311.79464         4.81052
     2013.03490       308.53740         4.84541
     2013.03764       309.16315         4.84183
     2013.04038       308.21291         4.80963
     2013.04312       304.23867         4.92146
     2013.04585       309.69143         4.90983
     2013.04859       309.42019         4.92951
     2013.05133       308.83594         4.84720
     2013.05407       312.95270         4.81589
     2013.05681       313.44946         4.78458
     2013.05954       314.16122         4.82931
     2013.06228       311.28597         4.95814
     2013.06502       315.38673         4.99661
     2013.06776       319.09549         4.91877
     2013.07049       313.67025         4.87851
     2013.07323       315.27201         4.77921
     2013.07597       316.24676         4.81321
     2013.07871       317.28152         4.81499
     2013.08145       320.76228         4.80336
     2013.08418       311.91004         4.80247
     2013.08692       315.48479         4.78547
     2013.08966       304.32655         4.78816
     2013.09240       313.23331         4.79531
     2013.09514       317.15707         4.80157
     2013.09787       317.06283         5.02882
     2013.10061       317.27158         5.11470
     2013.10335       312.70634         4.86778
     2013.10609       314.55210         4.77474
     2013.10882       315.16486         4.79979
     2013.11156       308.26161         4.95009
     2013.11430       313.61537         4.81231
     2013.11704       306.52213         4.82841
     2013.11978       311.04389         5.01629
     2013.12251       310.83465         4.79531
     2013.12525       305.42340         4.81231
     2013.12799       311.67116         4.90267
     2013.13073       312.34992         4.82215
     2013.13347       314.90768         4.82573
     2013.13620       316.49644         4.83110
     2013.13894       312.69919         4.83110
     2013.14168       318.70995         4.88209
     2013.14442       323.07271         4.96798
     2013.14715       317.31547         4.94651
     2013.14989       308.73222         4.81231
     2013.15263       314.53198         4.82394
     2013.15537       300.84474         4.81947
     2013.15811       304.87250         4.83468
     2013.16084       308.20026         4.79800
     2013.16358       308.51401         4.84541
     2013.16632       311.68377         4.81142
     2013.16906       311.05053         4.79979
     2013.17180       309.12929         4.78279
     2013.17453       313.04804         4.79084
     2013.17727       310.90380         4.88030
     2013.18001       314.52256         4.91341
     2013.18275       312.96132         4.77742
     2013.18548       311.93008         4.77921
     2013.18822       306.18583         4.79173
     2013.19096       311.94159         4.78547
     2013.19370       312.67235         4.79621
     2013.19644       310.53911         4.85794
     2013.19917       311.23686         4.92056
     2013.20191       315.98462         4.83199
     2013.20465       314.08738         4.80963
     2013.20739       312.01514         4.83199
     2013.21013       312.64090         4.77652
     2013.21286       309.00965         4.77116
     2013.21560       320.69941         4.86331
     2013.21834       313.08817         4.78368
     2013.22108       310.27693         4.76847
     2013.22381       307.59469         4.72642
     2013.22655       308.26444         4.76400
     2013.22929       311.00720         4.74790
     2013.23203       311.76296         4.73805
     2013.23477       309.24372         4.74163
     2013.23750       310.32047         4.84810
     2013.24024       308.62223         4.85704
     2013.24298       310.47699         4.88478
     2013.24572       315.52275         4.85794
     2013.24846       312.72351         4.86062
     2013.25119       316.70326         4.76758
     2013.25393       315.51102         4.76937
     2013.25667       319.20978         4.91072
     2013.25941       322.05654         4.80873
     2013.26214       322.31529         4.84541
     2013.26488       320.23905         4.75416
     2013.26762       317.54081         4.71837
     2013.27036       305.31057         4.74074
     2013.27310       314.37233         5.05208
     2013.27583       311.40908         4.80963
     2013.27857       311.39684         4.93130
     2013.28131       319.02460         4.75953
     2013.28405       321.02436         4.75774
     2013.28679       318.04511         4.84004
     2013.28952       311.38387         4.74790
     2013.29226       303.51363         4.84004
     2013.29500       309.24539         4.75863
     2013.29774       314.23115         4.84720
     2013.30047       310.51590         4.75774
     2013.30321       305.98166         4.76489
     2013.30595       302.81042         4.76847
     2013.30869       302.04818         4.74969
     2013.31143       303.49994         4.71837
     2013.31416       312.40569         4.73895
     2013.31690       311.71645         4.76221
     2013.31964       306.90121         4.92951
     2013.32238       312.94797         4.76668
     2013.32512       318.79772         4.81589
     2013.32785       313.15848         4.74611
     2013.33059       307.17924         4.75953
     2013.33333       309.50900         4.79800
     2013.33607       305.72476         4.73716
     2013.33880       309.79151         4.73537
     2013.34154       317.63627         4.78816
     2013.34428       313.95203         4.88746
     2013.34702       313.09079         4.85257
     2013.34976       308.20754         4.83110
     2013.35249       305.20530         4.80426
     2013.35523       307.07706         4.93667
     2013.35797       309.96182         4.89999
     2013.36071       309.82658         4.95009
     2013.36344       312.92133         4.99482
     2013.36618       315.42609         4.88567
     2013.36892       310.84085         4.83915
     2013.37166       314.88961         4.81857
     2013.37440       311.66836         4.87762
     2013.37713       311.66212         4.87583
     2013.37987       310.05488         4.80605
     2013.38261       306.76964         4.80963
     2013.38535       311.83640         4.90088
     2013.38809       315.45815         4.85346
     2013.39082       315.67091         4.87851
     2013.39356       316.62967         4.81321
     2013.39630       310.43843         4.84631
     2013.39904       315.95019         4.79352
     2013.40177       315.17094         4.84004
     2013.40451       317.07270         4.88209
     2013.40725       318.23146         4.87583
     2013.40999       315.40222         4.86062
     2013.41273       312.56697         4.84631
     2013.41546       307.85373         5.03418
     2013.41820       312.05149         4.85525
     2013.42094       316.44825         4.86867
     2013.42368       310.03801         4.91341
     2013.42642       311.70576         4.92056
     2013.42915       316.06852         4.84094
     2013.43189       318.52728         5.08786
     2013.43463       316.68004         4.81142
     2013.43737       316.10779         4.81768
     2013.44010       317.75455         4.82663
     2013.44284       316.53331         4.84452
     2013.44558       315.10107         4.97424
     2013.44832       309.70983         4.80426
     2013.45106       313.19358         4.82931
     2013.45379       315.19534         4.80336
     2013.45653       314.85810         4.80157
     2013.45927       311.94586         4.87494
     2013.46201       312.71561         4.82573
     2013.46475       314.13237         4.76937
     2013.46748       317.69213         4.77652
     2013.47022       317.80789         4.76579
     2013.47296       312.62665         4.76042
     2013.47570       315.98940         4.76668
     2013.47843       322.78716         4.90804
     2013.48117       320.33492         4.85973
     2013.48391       325.46768         4.96440
     2013.48665       313.41544         4.76489
     2013.48939       312.95819         4.90178
     2013.49212       315.72195         4.94382
     2013.49486       314.44171         4.85078
     2013.49760       319.94447         4.87404
     2013.50034       319.47122         4.90983
     2013.50308       321.03598         4.80247
     2013.50581       319.31974         4.76758
     2013.50855       318.27750         4.77742
     2013.51129       319.33426         4.79263
     2013.51403       320.53501         4.80694
     2013.51676       315.97677         4.82305
     2013.51950       314.20253         4.79531
     2013.52224       320.30229         4.79621
     2013.52498       321.35204         4.95993
     2013.52772       321.42180         4.80605
     2013.53045       314.79256         4.81589
     2013.53319       319.06632         4.79889
     2013.53593       319.86308         4.96708
     2013.53867       322.08683         4.81142
     2013.54141       318.05459         4.89462
     2013.54414       315.90035         4.78994
     2013.54688       314.85111         4.79173
     2013.54962       317.35686         4.78816
     2013.55236       319.03762         4.81589
     2013.55509       317.27738         4.77205
     2013.55783       317.36714         4.80247
     2013.56057       316.18290         4.88120
     2013.56331       318.09465         4.88836
     2013.56605       319.87441         4.82663
     2013.56878       319.80617         4.80426
     2013.57152       324.09493         4.82752
     2013.57426       325.38069         4.82752
     2013.57700       315.65344         4.83020
     2013.57974       318.79820         4.81231
     2013.58247       323.05796         4.79889
     2013.58521       319.40172         4.80605
     2013.58795       323.89347         4.80515
     2013.59069       319.84623         4.81589
     2013.59342       322.53699         4.83468
     2013.59616       328.04475         4.82663
     2013.59890       317.58351         4.85078
     2013.60164       323.08426         4.82215
     2013.60438       322.89802         4.88388
     2013.60711       327.53678         4.96082
     2013.60985       324.35854         4.88925
     2013.61259       319.70429         4.97245
     2013.61533       326.44605         4.92772
     2013.61807       323.33381         4.98766
     2013.62080       325.46957         5.05565
     2013.62354       320.56433         4.86509
     2013.62628       325.58708         5.00913
     2013.62902       315.76884         4.83736
     2013.63175       323.65360         4.82841
     2013.63449       327.67536         4.91698
     2013.63723       324.36711         4.82663
     2013.63997       331.72887         4.83736
     2013.64271       324.56963         4.83826
     2013.64544       332.10739         4.85883
     2013.64818       324.45215         4.85078
     2013.65092       326.12990         4.86688
     2013.65366       319.95566         4.92325
     2013.65639       325.36242         4.99571
     2013.65913       326.58718         5.03329
     2013.66187       332.95694         4.97782
     2013.66461       325.71469         4.84094
     2013.66735       326.23345         4.88478
     2013.67008       325.98821         4.89283
     2013.67282       322.03597         5.11470
     2013.67556       325.59572         5.01092
     2013.67830       333.28348         4.91967
     2013.68104       336.91124         4.93219
     2013.68377       326.36100         4.81589
     2013.68651       318.68276         4.78458
     2013.68925       319.82951         4.91788
     2013.69199       320.49127         4.82573
     2013.69472       324.76003         4.82484
     2013.69746       322.97579         4.82573
     2013.70020       325.14354         4.78637
     2013.70294       327.45430         4.80426
     2013.70568       331.92406         4.89999
     2013.70841       335.04482         5.03418
     2013.71115       327.34258         4.85257
     2013.71389       317.92133         4.81321
     2013.71663       318.30409         4.80515
     2013.71937       328.69885         4.80157
     2013.72210       332.52961         4.87046
     2013.72484       337.66236         4.89641
     2013.72758       332.95312         4.87494
     2013.73032       322.46988         4.84362
     2013.73305       328.00664         4.77474
     2013.73579       323.81340         4.77026
     2013.73853       322.83515         4.82036
     2013.74127       327.38691         4.85794
     2013.74401       335.85567         4.94919
     2013.74674       331.91843         5.01719
     2013.74948       323.12819         4.86509
     2013.75222       322.85094         4.82305
     2013.75496       318.69770         4.80694
     2013.75770       310.64046         4.81499
     2013.76043       310.09322         4.83736
     2013.76317       316.99397         4.80963
     2013.76591       332.48173         4.97066
     2013.76865       322.47249         4.89551
     2013.77138       316.44125         4.86420
     2013.77412       318.94901         4.82573
     2013.77686       319.58176         4.82931
     2013.77960       316.04552         4.83110
     2013.78234       311.20928         4.86152
     2013.78507       313.25304         4.80157
     2013.78781       311.28479         4.87583
     2013.79055       311.89355         4.82215
     2013.79329       311.21131         4.80247
     2013.79603       319.92207         4.81499
     2013.79876       316.63883         4.78816
     2013.80150       321.66658         4.89641
     2013.80424       319.78134         4.90446
     2013.80698       319.86710         4.78726
     2013.80971       323.00986         4.80426
     2013.81245       322.75861         4.83826
     2013.81519       319.24637         4.80515
     2013.81793       315.62313         4.81321
     2013.82067       317.13289         4.87494
     2013.82340       316.66165         4.83915
     2013.82614       318.38540         4.90625
     2013.82888       322.98016         4.87673
     2013.83162       319.95792         4.85078
     2013.83436       317.44668         4.92146
     2013.83709       318.64144         4.96440
     2013.83983       321.47419         4.90893
     2013.84257       318.32295         4.82663
     2013.84531       317.30671         4.86688
     2013.84804       318.74747         4.80426
     2013.85078       323.09922         4.85168
     2013.85352       322.46198         4.82215
     2013.85626       318.19674         4.86867
     2013.85900       319.23550         4.82484
     2013.86173       314.39826         4.79889
     2013.86447       311.28601         4.84273
     2013.86721       309.92677         4.80605
     2013.86995       317.38453         4.80873
     2013.87269       319.83629         4.83199
     2013.87542       327.50004         4.83826
     2013.87816       323.42380         4.80605
     2013.88090       324.77256         4.89551
     2013.88364       327.20932         5.10128
     2013.88637       320.43708         4.80157
     2013.88911       311.12683         4.81589
     2013.89185       307.56459         4.78547
     2013.89459       312.79435         4.77652
     2013.89733       318.84611         4.80605
     2013.90006       309.12486         4.90983
     2013.90280       309.43062         4.88657
     2013.90554       317.05438         4.83020
     2013.90828       315.59714         4.80515
     2013.91102       311.73590         4.78100
     2013.91375       311.62265         4.81947
     2013.91649       315.74741         4.82394
     2013.91923       320.45617         4.93130
     2013.92197       316.06193         4.87315
     2013.92470       319.01469         4.74253
     2013.92744       314.10344         4.86599
     2013.93018       318.50320         4.78905
     2013.93292       314.23496         4.80694
     2013.93566       313.90472         4.79889
     2013.93839       316.73247         4.76311
     2013.94113       315.39123         4.74432
     2013.94364       319.31068         5.38041
     2014.43668       313.69640         4.87225
     2014.43942       312.49515         4.84720
     2014.44216       308.53991         4.86152
     2014.44490       314.68167         5.00198
     2014.44763       319.05843         5.00019
     2014.45037       314.28019         4.83110
     2014.45311       319.36894         4.93309
     2014.45585       311.83170         4.87315
     2014.45859       306.87146         4.86062
     2014.46132       310.92722         4.82126
     2014.46406       313.91197         4.88836
     2014.46680       309.49173         4.89730
     2014.46954       312.22149         4.86152
     2014.47227       315.52125         4.83736
     2014.47501       313.24601         4.85883
     2014.47775       313.88176         4.95188
     2014.48049       314.42252         4.89909
     2014.48323       320.99428         4.89999
     2014.48596       319.79104         5.03239
     2014.48870       322.97179         5.00555
     2014.49144       316.99655         4.77563
     2014.49418       310.00631         4.78100
     2014.49692       313.47507         4.78368
     2014.49965       309.95683         4.86778
     2014.50239       312.78458         4.87762
     2014.50513       315.48534         4.86331
     2014.50787       319.39310         4.87225
     2014.51060       311.26286         4.78189
     2014.51334       316.46061         4.77205
     2014.51608       321.41737         4.79084
     2014.51882       316.86013         4.80605
     2014.52156       322.69489         4.89641
     2014.52429       322.12665         4.79531
     2014.52703       320.13840         4.86599
     2014.52977       318.31516         4.80426
     2014.53251       317.21092         4.88209
     2014.53525       310.46268         4.82394
     2014.53798       322.61944         4.82394
     2014.54072       316.90119         4.89372
     2014.54346       319.15495         4.83915
     2014.54620       320.87871         4.89283
     2014.54893       321.19147         4.86957
     2014.55167       324.88522         4.85794
     2014.55441       317.80298         4.82752
     2014.55715       324.79074         5.08786
     2014.55989       321.37950         4.87225
     2014.56262       319.05126         4.80605
     2014.56536       318.03301         4.81947
     2014.56810       314.03777         4.80247
     2014.57084       314.86553         4.81947
     2014.57357       313.60029         4.77295
     2014.57631       316.13404         4.81857
     2014.57905       317.43780         4.84810
     2014.58179       317.51456         4.94919
     2014.58453       312.72232         5.00198
     2014.58726       318.87508         5.01629
     2014.59000       319.12183         4.80694
     2014.59274       321.56859         4.79979
     2014.59548       322.53235         4.85346
     2014.59822       323.60111         4.88388
     2014.60095       323.01486         4.97156
     2014.60369       316.62162         4.87315
     2014.60643       313.15338         4.81321
     2014.60917       314.02414         4.85078
     2014.61190       327.88890         4.93040
     2014.61464       319.10965         4.79889
     2014.61738       318.60041         4.97961
     2014.62012       323.27817         4.91788
     2014.62286       319.70393         4.79800
     2014.62559       323.88169         4.74700
     2014.62833       315.60444         4.91162
     2014.63107       325.86220         4.91877
     2014.63381       322.98596         5.01987
     2014.63655       324.88872         4.89641
     2014.63928       320.09447         4.86599
     2014.64202       315.06423         4.86867
     2014.64476       320.60799         4.89551
     2014.64750       322.46975         4.89015
     2014.65023       314.69651         4.85346
     2014.65297       324.65226         4.87046
     2014.65571       326.74102         4.94919
     2014.65845       329.50378         4.94203
     2014.66119       324.45254         4.86599
     2014.66392       326.20129         4.85973
     2014.66666       324.03105         4.83736
     2014.66940       325.04181         4.89730
     2014.67214       329.33557         5.02792
     2014.67488       315.84133         4.85168
     2014.67761       315.27708         4.83468
     2014.68035       317.33684         4.90625
     2014.68309       313.68160         4.84094
     2014.68583       321.48236         4.91698
     2014.68856       323.47211         4.84720
     2014.69130       315.20687         4.85168
     2014.69404       312.84363         4.82931
     2014.69678       320.97739         4.81678
     2014.69952       315.26815         4.75505
     2014.70225       321.15690         4.78816
     2014.70499       319.26366         4.71390
     2014.70773       322.16042         4.79621
     2014.71047       324.95718         4.91251
     2014.71321       324.06294         4.80515
     2014.71594       321.58669         4.94561
     2014.71868       323.52945         4.78010
     2014.72142       324.79721         4.78905
     2014.72416       319.44997         4.88836
     2014.72689       326.29472         4.96440
     2014.72963       325.91948         4.88030
     2014.73237       318.81724         4.94293
     2014.73511       316.00800         4.80694
     2014.73785       313.78476         4.83020
     2014.74058       317.94951         4.82752
     2014.74332       326.01227         4.98856
     2014.74606       326.52103         4.90625
     2014.74880       319.52479         4.85168
     2014.75154       321.50954         4.94025
     2014.75427       313.54530         4.81321
     2014.75701       315.17906         4.98140
     2014.75975       321.65182         4.95009
     2014.76249       319.95658         4.87225
     2014.76522       317.49433         4.82663
     2014.76796       321.10809         4.89104
     2014.77070       320.99985         4.85973
     2014.77344       319.35661         4.84541
     2014.77618       332.91136         5.03776
     2014.77891       325.27612         4.86957
     2014.78165       330.13488         4.89551
     2014.78439       326.25064         4.86062
     2014.78713       332.91540         4.91698
     2014.78987       322.98215         4.91430
     2014.79260       324.52191         4.83199
     2014.79534       334.17667         4.95456
     2014.79808       321.10543         4.94561
     2014.80082       322.43319         4.97335
     2014.80355       321.85894         5.00734
     2014.80629       322.52270         4.97693
     2014.80903       323.96846         4.91341
     2014.81177       325.82122         4.79710
     2014.81451       330.92197         4.90893
     2014.81724       328.11073         4.95009
     2014.81998       318.29549         4.85346
     2014.82272       324.83525         5.04313
     2014.82546       328.02401         4.82215
     2014.82820       317.19476         4.89283
     2014.83093       324.05452         4.80963
     2014.83367       324.86328         4.80157
     2014.83641       316.81904         4.80157
     2014.83915       322.35879         4.81947
     2014.84188       317.72955         4.92414
     2014.84462       316.13431         4.90446
     2014.84736       321.11407         5.19880
     2014.85010       312.71983         4.89283
     2014.85284       319.24058         4.78637
     2014.85557       322.30634         4.90446
     2014.85831       322.29210         4.84810
     2014.86105       313.83486         4.79173
     2014.86379       314.31961         4.78726
     2014.86653       319.92937         4.75416
     2014.86926       316.02413         4.82036
     2014.87200       315.21489         4.80247
     2014.87474       316.92765         4.75505
     2014.87748       313.42040         4.77026
     2014.88021       317.81316         4.82484
     2014.88295       312.38292         4.94114
     2014.88569       318.54268         5.06907
     2014.88843       322.42444         5.06460
     2014.89117       324.86419         5.18001
     2014.89390       317.82195         5.06102
     2014.89664       312.87671         5.11560
     2014.89938       315.79047         5.04313
     2014.90212       311.17422         5.07355
     2014.90485       313.49998         4.96619
     2014.90759       319.24274         4.89104
     2014.91033       319.57050         4.89820
     2014.91307       319.05326         4.85257
     2014.91581       317.33601         4.83468
     2014.91854       322.26077         4.83468
     2014.92128       314.34953         4.83915
     2014.92402       317.54429         4.85615
     2014.92676       316.82304         4.91430
     2014.92950       308.04180         4.87673
     2014.93223       306.63556         4.90356
     2014.93497       313.97032         4.83915
     2014.93771       317.75708         4.88567
     2014.94045       317.22783         4.82752
     2014.94318       323.43759         4.95724
     2014.94592       315.30835         4.82036
     2014.94866       314.07511         4.82663
     2014.95140       309.44286         4.78547
     2014.95414       316.48662         4.78637
     2014.95687       319.74638         4.77563
     2014.95961       320.97014         4.78279
     2014.96235       317.82790         4.77295
     2014.96509       320.84065         4.92861
     2014.96783       317.46141         4.77026
     2014.97056       311.23517         4.84273
     2014.97330       304.31693         4.77742
     2014.97604       309.53769         4.81231
     2014.97878       313.68844         4.77295
     2014.98151       324.42920         4.86509
     2014.98425       313.89296         4.75595
     2014.98699       312.71572         4.79889
     2014.98973       310.10847         4.76221
     2014.99247       310.17323         4.74432
     2014.99520       305.47499         4.76489
     2014.99794       313.96875         4.82931
     2015.00068       314.39051         4.73090
     2015.00342       306.04826         4.81947
     2015.00616       308.16902         4.83378
     2015.00889       307.36778         4.83468
     2015.01163       315.09154         4.85257
     2015.01437       306.89129         4.86778
     2015.01711       312.18805         4.98498
     2015.01984       313.64881         4.79710
     2015.02258       317.65957         4.86509
     2015.02532       313.91733         4.80784
     2015.02806       316.07708         4.77831
     2015.03080       316.90084         4.74969
     2015.03353       304.49860         4.75774
     2015.03627       314.33236         4.73269
     2015.03901       317.97311         4.88209
     2015.04175       322.73987         4.82663
     2015.04449       314.25163         4.83736
     2015.04722       319.30439         4.92056
     2015.04996       312.27915         4.78279
     2015.05270       308.93290         4.75953
     2015.05544       311.91666         4.74163
     2015.05817       318.03042         4.78010
     2015.06091       315.42718         4.79800
     2015.06365       319.10594         4.98856
     2015.06639       317.45969         4.75863
     2015.06913       314.03445         4.74790
     2015.07186       309.59921         4.89462
     2015.07460       314.61597         4.78458
     2015.07734       302.11572         4.82126
     2015.08002       307.37840         4.96440
     2015.08276       313.23816         6.06034
     2015.08544       316.04084         6.00398
     2015.08829       320.77176         5.21222
     2015.09103       317.43351         4.76311
     2015.09377       317.03827         4.91162
     2015.09650       315.48203         4.93219
     2015.09924       327.17879         5.07086
     2015.10198       326.06554         4.97872
     2015.10472       315.13230         4.99482
     2015.10746       311.43106         4.86599
     2015.11019       307.56482         5.05029
     2015.11293       311.08558         5.29363
     2015.11567       319.84233         6.31174
     2015.11841       311.83509         5.00645
     2015.12115       314.34385         5.48240
     2015.12388       305.10361         5.22653
     2015.12664       306.92938         5.10665
     2015.12936       309.00612         5.39562
     2015.13210       316.09388         5.56203
     2015.13483       309.85964         5.42604
     2015.13757       314.41340         5.74453
     2015.14031       309.31715         6.22675
     2015.14305       310.89991         7.79865
     2015.14579       309.98467         7.99905
     2015.14852       316.92743         5.35984
     2015.15126       310.20119         6.32069
     2015.15400       320.71594         9.02968
     2015.15674       336.04170        12.45708
     2015.15948       324.85046         8.60383
     2015.16221       317.67722         6.46294
     2015.16495       318.81697         6.30190
     2015.16769       315.11973         5.70159
     2015.17043       317.60749         5.95835
     2015.17316       312.03225         8.76397
     2015.17592       313.88703        11.10705
     2015.17864       313.22676        13.78205
     2015.29641       462.34340       155.74566
     2015.37029       308.45981        91.38917
     2015.37302       355.35656        96.39651
     2015.40041       286.85415       151.74301
     2015.41136       525.50018       134.92005
     2015.41410       493.49394        80.50399
     2015.41683       345.89469        89.19281
     2015.41957       356.18045        67.73379
     2015.42231       322.34522        38.68994
     2015.42505       381.96297        61.71460
     2015.42772       283.67864        86.34157
     2015.43598       348.33897        30.19079
     2015.43874       353.91276        14.21953
     2015.44147       297.04051        18.50669
     2015.44421       314.97727         8.13324
     2015.44695       317.57403        11.85408
     2015.44969       320.19679         7.84964
     2015.45243       325.80354         9.04310
     2015.45516       336.75830         8.87849
     2015.45790       325.58706         9.11288
     2015.46064       328.22082        14.08981
     2015.46338       331.85558        13.75342
     2015.46611       361.80533        33.12791
     2015.46885       351.07709        16.97057
     2015.47159       322.49285        22.71064
     2015.47433       365.00061        31.77968
     2015.47707       341.59536        30.72310
     2015.47980       373.60112        36.99369
     2015.48254       325.42688        76.64448
     2015.48528       342.08564        79.81422
     2015.48802       363.44340        34.63987
     2015.49076       342.29215        32.99014
     2015.49349       477.75391       135.49531
     2015.49897       417.54443        59.84926
     2015.50171       311.66619        86.43908
     2015.50453       359.71406        46.79366
     2015.50718       315.68770        38.71857
     2015.50992       334.60546        31.30731
     2015.51266       353.25122        21.72921
     2015.51540       335.60497        18.74287
     2015.51813       333.34273        16.89900
     2015.52087       342.48649        14.31526
     2015.52361       340.83725        14.22937
     2015.52635       329.67901        18.41096
     2015.52908       323.91676        19.69836
     2015.53182       298.85352        26.44579
     2015.53456       327.08428        17.61830
     2015.53730       312.01604        11.12942
     2015.54004       316.97679         9.27302
     2015.54277       330.75155         9.23098
     2015.54551       341.74031        11.53827
     2015.54825       327.28407        10.51032
     2015.55099       337.01383        12.42219
     2015.55373       328.67758        10.14531
     2015.55646       336.70934         9.53247
     2015.55920       335.02910         7.74944
     2015.56194       326.45086         8.18961
     2015.56468       324.29661         8.78007
     2015.56741       344.93237        21.78646
     2015.57015       328.14513        18.30360
     2015.57290       336.06989        20.29777
     2015.57563       342.08265        29.43660
     2015.57837       343.09640        27.07741
     2015.58109       349.83615        17.83928
     2015.58384       339.10492        17.12803
     2015.58657       344.01266        17.69077
     2015.58932       340.53144        18.48342
     2015.59206       325.64319        15.61966
     2015.59479       342.03195        18.57826
     2015.59753       362.29971        17.60488
     2015.60027       344.58347        22.35457
     2015.60301       324.46422        27.92196
     2015.60574       373.97398        20.63684
     2015.60846       359.43671        29.84277
     2015.61122       478.35550        71.90106
     2015.61396       361.70126        82.38543
     2015.61669       417.80001        89.45315
     2015.61944       379.72278        51.75090
     2015.62491       248.80229       149.27736
     2015.64417       316.63372       118.78150
     2015.64681       365.52334        67.17195
     2015.73716        73.44736       130.81004
     2015.74264       468.09187       153.84543
     2015.75620       167.20749       111.15105
     2015.75906       313.74942       142.55676
     2015.76180       359.42018        72.16587
     2015.76454       361.42594        82.05442
     2015.76728       267.70469        82.54826
     2015.77823       345.13772       154.58620
     2015.78644       386.70200        99.46784
     2015.78918       327.59776        61.94184
     2015.79192       283.34251        47.09158
     2015.79466       441.12027        96.30616
     2015.79739       371.70703        79.33826
     2015.80013       446.01179        45.12425
     2015.80287       224.44954        69.06950
     2015.80561       362.99530        51.47177
     2015.80835       352.21406        33.68081
     2015.81108       311.90082        41.28173
     2015.81382       360.60858        52.18928
     2015.81930       255.65309       127.83354
     2015.82203       207.20585       108.13698
     2015.82477       361.68361        74.85787
     2015.82751       279.87636        58.83204
     2015.83025       462.00412        85.77615
     2015.83299       408.96488        46.96543
     2015.83572       430.89964        80.52367
     2015.83846       370.67440        52.79585
     2015.84120       390.12915        35.59267
     2015.84394       348.78991        51.21948
     2015.84668       256.67967        52.75559
     2015.84941       327.63343        41.79616
     2015.85215       291.57319        39.23389
     2015.85489       310.95294        37.22540
     2015.85763       296.62770        45.45258
     2015.86036       298.82346        39.75457
     2015.86310       367.62322        34.91274
     2015.86584       378.42697        43.34121
     2015.86858       424.70973        39.01112
     2015.87132       379.49349        51.00835
     2015.87406       198.47726        75.43134
     2015.87679       357.66200        51.07992
     2015.88227       359.26252        47.99517
     2015.88500       375.37827        76.08443
     2015.88771       411.25798        55.81260
     2015.89049       379.61481        33.63160
     2015.89322       319.34555        39.73936
     2015.89596       296.10031        59.17469
     2015.89869       326.86107        36.94806
     2015.90143       339.03783        31.54976
     2015.90417       336.60758        30.72489
     2015.90691       302.20334        23.68043
     2015.90965       330.97210        21.98597
     2015.91245       307.33394        24.39705
     2015.91517       334.46468        25.67371
     2015.91790       331.76943        24.66902
     2015.92065       328.77420        27.87812
     2015.92338       331.16695        39.26788
     2015.92607       302.83165        37.14130
     2015.92881       269.47140        41.23432
     2015.93155       363.87716        52.02198
     2015.93431       342.28295        16.85248
     2015.93700       322.81764        15.02740
     2015.93989       335.48661        23.37715
     2015.94249       325.84018        20.42302
     2015.94524       321.33595        14.52282
     2015.94794       335.97866        15.04619
     2015.95071       337.70047        12.33898
     2015.95345       322.46022        12.22268
     2015.95619       320.42598        14.74380
     2015.95893       316.76474        11.09632
     2015.96167       336.88550        12.78362
     2015.96440       329.86026         9.49579
     2015.96714       330.51601        10.15157
     2015.96988       330.65177        12.99834
     2015.97262       329.57653        11.92208
     2015.97537       328.28931        10.61768
     2015.97809       324.91504         9.64967
     2015.98083       314.60480         9.54858
     2015.98357       323.90956        20.31566
     2015.98631       314.97032        10.04242
     2015.98904       312.98108         9.44927
     2015.99178       313.14283         9.61031
     2015.99452       320.55359         9.58973
     2015.99726       324.08535         9.91628
     2016.00000       322.70211         9.71498
     2016.00273       304.88486        10.25624
     2016.00547       316.23062        10.04063
     2016.00821       312.21738         9.65504
     2016.01095       326.86214         9.63088
     2016.01368       320.39690         9.80713
     2016.01642       318.19865         9.34370
     2016.01916       316.77941         9.56826
     2016.02190       319.37617         9.58794
     2016.02464       318.68693         9.53516
     2016.02737       321.23269         9.74361
     2016.03011       310.58544         9.68993
     2016.03285       325.21020         9.60226
     2016.03559       317.06596         9.38843
     2016.03833       323.88872        12.78989
     2016.04106       319.67447        10.34750
     2016.04380       312.87923        10.49959
     2016.04654       306.88699         9.55931
     2016.04928       320.05075         9.63267
     2016.05201       314.80251         9.59331
     2016.05475       317.89526         9.45374
     2016.05749       327.90802         9.57273
     2016.06023       319.88578         9.54858
     2016.06297       311.44354        10.32155
     2016.06570       295.60129        11.67605
     2016.06844       311.48705        21.09759
     2016.07118       321.36081        24.10629
     2016.07392       301.02957        29.26572
     2016.07666       286.31833        31.11406
     2016.07939       335.71008        25.86158
     2016.08213       309.55684        24.22080
     2016.08487       317.42660        46.13609
     2016.08761        96.75736       148.05706
     2016.09308       336.14087       128.06705
     2016.09582       331.61663        29.98323
     2016.09856       248.07739        29.38471
     2016.10130       296.56015        31.64190
     2016.10403       281.02490        30.62827
     2016.10677       323.31766        56.77256
     2016.10951       295.46942        76.70621
     2016.11225       257.00818        71.62729
     2016.11498        18.82394       102.63758
     2016.11772       218.08969        63.28739
     2016.12046       434.86445        75.02696
     2016.12320       370.64621        50.73101
     2016.12594       -24.22703       127.18492
     2016.80219       312.49015         4.88299
     2016.80492       316.25790         4.73000
     2016.80766       320.35466         4.76758
     2016.81040       314.64542         4.77563
     2016.81314       319.77318         4.75326
     2016.81587       314.42294         4.76489
     2016.81850       319.08054         5.48151
     2016.82135       313.55345         6.22943
     2016.82409       316.13621         4.71032
     2016.82683       321.52397         4.69869
     2016.82956       309.35072         4.69780
     2016.83230       320.07648         4.71748
     2016.83504       314.40824         4.68706
     2016.83778       313.00100         4.74700
     2016.84052       305.53976         4.76221
     2016.84300       302.07017         5.32405
     2016.84599       311.75327         4.78726
     2016.84873       320.13403         4.75595
     2016.85147       316.56379         4.70943
     2016.85420       318.38854         4.71658
     2016.85694       318.54630         4.78994
     2016.85968       306.01006         4.83647
     2016.86242       320.54182         4.80068
     2016.86516       318.29858         4.78905
     2016.86789       317.33033         4.74969
     2016.87063       316.63809         4.78279
     2016.87337       319.49785         4.79979
     2016.87611       317.63261         4.68974
     2016.87885       315.54936         4.66559
     2016.88158       308.12112         4.70674
     2016.88432       324.06788         4.73537
     2016.88706       322.25764         4.74700
     2016.88980       319.83440         4.72374
     2016.89253       318.53715         4.73805
     2016.89527       318.61291         4.71479
     2016.89801       314.07167         4.68706
     2016.90075       312.60443         4.75505
     2016.90349       317.71419         4.85704
     2016.90622       321.62894         4.85346
     2016.90896       320.62770         4.73716
     2016.91170       318.34146         4.68438
     2016.91444       312.68622         4.78368
     2016.91718       306.25197         4.87851
     2016.91991       311.13273         4.87225
     2016.92265       315.04449         4.75774
     2016.92539       315.05025         4.74432
     2016.92813       299.73001         4.69601
     2016.93086       310.23976         4.73179
     2016.93360       312.62652         4.76668
     2016.93634       314.66428         4.73179
     2016.93908       305.87304         4.81321
     2016.94182       315.03879         4.71569
     2016.94455       312.18355         4.76847
     2016.94729       309.78931         4.81768
     2016.95003       311.18407         4.85346
     2016.95277       314.76683         4.80336
     2016.95551       314.99358         4.68169
     2016.95824       317.37934         4.71927
     2016.96098       318.59810         4.75953
     2016.96372       310.54086         4.74879
     2016.96646       311.49561         4.81231
     2016.96919       321.22537         4.78905
     2016.97193       307.49613         4.73537
     2016.97467       317.09489         4.85078
     2016.97741       316.59265         4.76579
     2016.98015       316.76740         4.78010
     2016.98288       313.11016         4.70227
     2016.98562       317.87792         4.68348
     2016.98836       313.66768         4.74879
     2016.99110       314.98644         4.72374
     2016.99384       316.18919         4.74253
     2016.99657       319.73995         4.77295
     2016.99931       315.23171         4.68080
     2017.00205       306.86347         4.67364
     2017.00479       316.53622         4.71300
     2017.00752       309.04898         4.71032
     2017.01026       311.95674         4.72821
     2017.01300       316.60450         4.70406
     2017.01574       316.12326         4.65754
     2017.01848       315.54101         4.68617
     2017.02121       319.63477         4.73448
     2017.02395       317.43053         4.74253
     2017.02669       316.19629         4.78547
     2017.02943       320.49204         4.70048
     2017.03216       311.29280         4.67185
     2017.03490       311.93156         4.68527
     2017.03764       309.20032         4.70585
     2017.04038       309.81808         4.72195
     2017.04312       313.23183         4.71211
     2017.04585       320.75059         5.00108
     2017.04859       320.49335         4.93577
     2017.05133       325.35411         4.73179
     2017.05407       325.24286         4.71658
     2017.05681       324.23062         4.71122
     2017.05954       312.85538         4.75953
     2017.06214       316.26094         5.01361
     2017.06502       309.08490         4.68885
     2017.06776       305.57565         4.75058
     2017.07049       309.18241         4.74879
     2017.07323       302.81117         4.73000
     2017.07597       306.15593         4.71569
     2017.07871       312.75769         4.84899
     2017.08145       308.84444         4.71658
     2017.08418       307.84220         4.72106
     2017.08692       311.68596         4.70137
     2017.08966       311.64772         4.69780
     2017.09240       311.40647         4.75505
     2017.09514       316.72623         4.76311
     2017.09787       315.59699         4.74879
     2017.10061       310.43775         4.73805
     2017.10335       311.24851         4.77742
     2017.10609       309.14326         4.69869
     2017.10882       313.92302         4.79173
     2017.11156       319.65978         4.76847
     2017.11430       305.95054         4.70943
     2017.11704       296.16529         4.71837
     2017.11978       308.41605         4.68974
     2017.12251       307.82081         4.75058
     2017.12525       313.70157         4.73984
     2017.12799       318.51233         4.78010
     2017.13073       314.04108         4.71390
     2017.13347       316.96484         4.72821
     2017.13620       318.21060         4.74342
     2017.13894       313.14236         4.74074
     2017.14168       309.69311         4.72464
     2017.14442       308.99887         4.74790
     2017.14715       308.50863         4.71837
     2017.14989       308.89239         4.70227
     2017.15263       314.41415         4.71748
     2017.15537       315.75990         4.74879
     2017.15811       311.25666         4.87673
     2017.16084       305.86342         4.72374
     2017.16358       310.68618         8.50542
     2017.16632       311.78694         4.73269
     2017.16906       309.19669         4.75147
     2017.17180       313.04145         4.72285
     2017.17453       317.27421         4.76937
     2017.17727       314.99797         4.78726
     2017.18001       309.72672         4.72732
     2017.18275       307.50148         4.75237
     2017.18548       302.91924         4.76400
     2017.18822       299.87100         4.81678
     2017.19096       301.52876         4.95456
     2017.19370       304.62951         4.75416
     2017.19644       307.31127         4.74163
     2017.19917       308.55203         4.78637
     2017.20191       309.81479         4.75058
     2017.20465       306.59754         4.87225
     2017.20739       305.78830         4.74253
     2017.21013       314.76306         4.74611
     2017.21286       309.15282         4.73627
     2017.21560       306.86758         4.72374
     2017.21834       312.40133         4.78547
     2017.22108       317.02809         4.76221
     2017.22381       313.33785         4.90178
     2017.22655       315.66361         4.83915
     2017.22929       310.37636         4.71569
     2017.23203       310.54612         4.72106
     2017.23477       303.77288         4.72106
     2017.23750       307.89964         4.68795
     2017.24024       309.77240         4.73537
     2017.24298       307.05415         4.73984
     2017.24572       302.23891         4.73269
     2017.24846       311.18667         4.74432
     2017.25119       309.13843         4.72374
     2017.25393       307.84019         4.70495
     2017.25667       309.18794         4.76668
     2017.25941       304.17870         4.75147
     2017.26214       311.98546         4.76668
     2017.26488       318.05722         4.80068
     2017.26762       313.85397         4.73090
     2017.27036       311.40573         4.75595
     2017.27310       313.26549         4.79352
     2017.27583       307.72025         4.77384
     2017.27857       307.38401         4.75326
     2017.28131       305.15176         4.75595
     2017.28405       305.45352         4.72016
     2017.28679       301.31528         4.70406
     2017.28952       304.56104         4.73537
     2017.29226       311.27179         4.71927
     2017.29500       306.52455         4.74253
     2017.29774       302.56531         4.76221
     2017.30047       305.89507         4.69690
     2017.30321       303.57983         4.77384
     2017.30595       308.43158         4.75416
     2017.30869       304.77334         4.70406
     2017.31143       309.41910         4.70943
     2017.31416       307.25486         4.69332
     2017.31690       309.75561         4.78368
     2017.31964       308.26737         4.82394
     2017.32238       303.43413         4.84183
     2017.32512       301.24189         4.68885
     2017.32785       308.16865         4.73537
     2017.33059       299.17840         4.70495
     2017.33333       303.27616         4.70585
     2017.33607       300.97592         4.69511
     2017.33880       304.91068         4.74790
     2017.34154       322.77944         5.10665
     2017.34428       303.97619         4.74342
     2017.34702       304.81695         4.68527
     2017.34976       310.75471         4.68795
     2017.35249       309.11747         4.71122
     2017.35523       305.42122         4.69959
     2017.35797       308.17198         4.73627
     2017.36071       306.09074         4.72374
     2017.36344       310.22950         4.72732
     2017.36618       306.13326         4.66469
     2017.36892       311.02701         4.71837
     2017.37166       311.26277         4.69780
     2017.37440       310.41353         4.71748
     2017.37713       309.78629         4.76400
     2017.37987       304.44904         4.73716
     2017.38261       307.45280         4.73448
     2017.38535       308.82656         4.69690
     2017.38809       312.31132         4.72195
     2017.39082       310.69808         4.73805
     2017.39356       312.33883         4.69601
     2017.39630       313.13559         4.67722
     2017.39904       314.32835         4.72821
     2017.40177       315.15311         4.74969
     2017.40451       313.11686         4.91609
     2017.40725       313.22362         4.70406
     2017.40999       312.95638         4.73984
     2017.41273       312.81614         4.74700
     2017.41546       313.47590         4.78905
     2017.41820       307.08665         4.84183
     2017.42094       312.57141         4.75058
     2017.42368       310.53317         4.69064
     2017.42642       312.25893         4.69780
     2017.42915       318.37769         4.73358
     2017.43189       319.69444         4.81410
     2017.43463       319.18120         4.74163
     2017.43737       317.50996         4.71927
     2017.44010       315.66672         4.70853
     2017.44284       318.28047         4.76489
     2017.44558       317.02523         4.76579
     2017.44832       315.87699         4.74969
     2017.45106       322.55875         4.73805
     2017.45379       319.77751         4.82484
     2017.45653       321.81426         4.87315
     2017.45927       312.41602         4.79889
     2017.46201       315.44178         4.76668
     2017.46475       312.10554         4.73358
     2017.46748       318.99929         4.80157
     2017.47022       313.29805         4.90356
     2017.47296       315.62081         4.73805
     2017.47570       312.11157         4.73179
     2017.47843       313.51833         4.74700
     2017.48117       315.48408         4.73090
     2017.48391       317.56984         4.78010
     2017.48665       320.24360         4.73984
     2017.48939       321.09236         4.74521
     2017.49212       320.32311         5.44572
     2017.49486       316.56487         4.77205
     2017.49760       317.20663         4.79263
     2017.50034       316.51439         4.74342
     2017.50308       324.06215         4.71479
     2017.50581       316.65490         4.74163
     2017.50855       320.14766         4.76937
     2017.51129       315.20842         4.81499
     2017.51403       316.81618         4.86331
     2017.51676       314.79194         4.72285
     2017.51950       313.74869         4.76579
     2017.52224       320.88345         4.74879
     2017.52498       319.19021         4.70853
     2017.52772       317.68397         4.87673
     2017.53045       318.15972         4.73627
     2017.53319       319.15348         4.70316
     2017.53593       317.83124         4.80336
     2017.53867       322.67800         4.77295
     2017.54141       327.68076         4.72016
     2017.54414       321.02851         4.77205
     2017.54688       317.73627         4.75595
     2017.54962       312.91403         4.73448
     2017.55236       314.84379         4.81321
     2017.55509       321.84354         4.75326
     2017.55783       322.80930         4.74611
     2017.56057       317.68206         4.73627
     2017.56331       318.46282         4.71032
     2017.56605       319.15358         4.77563
     2017.56878       317.78833         4.80068
     2017.57152       320.69509         4.72911
     2017.57426       318.89485         4.74790
     2017.57700       316.57061         4.73537
     2017.57974       317.42536         4.76668
     2017.58247       318.22012         4.72642
     2017.58521       317.98988         4.72374
     2017.58761       318.08818         5.32942
     2017.59069       315.30740         4.78816
     2017.59342       322.79815         4.74611
     2017.59616       311.31791         4.73537
     2017.59890       318.78867         4.73090
     2017.60164       317.04243         4.89283
     2017.60438       314.18719         4.74611
     2017.60711       316.30094         4.76579
     2017.60985       315.32270         4.83736
     2017.61259       314.26146         4.81589
     2017.61533       320.90922         4.83647
     2017.61807       321.88297         4.84004
     2017.62080       321.02373         4.76042
     2017.62354       319.53249         4.86778
     2017.62628       321.26825         4.85078
     2017.62902       324.10201         4.95545
     2017.63175       318.78276         4.77652
     2017.63449       316.21752         4.80068
     2017.63723       316.63028         4.71300
     2017.63997       319.51604         4.88836
     2017.64271       322.80479         4.79173
     2017.64544       324.65355         4.79173
     2017.64818       318.91531         4.87315
     2017.65092       322.09707         4.70585
     2017.65366       321.98983         4.73000
     2017.65639       321.29458         4.77474
     2017.65913       323.53934         4.72285
     2017.66187       320.66410         4.80963
     2017.66461       323.89786         4.91967
     2017.66735       320.85061         4.80784
     2017.67008       325.50837         4.73179
     2017.67282       329.00813         4.85078
     2017.67556       319.41289         4.74969
     2017.67830       320.52065         4.74432
     2017.68104       326.10140         4.74611
     2017.68377       325.84016         4.83647
     2017.68651       327.27992         4.96977
     2017.68925       328.53868         4.79352
     2017.69199       325.74344         4.76400
     2017.69472       328.10519         4.72821
     2017.69746       325.35495         4.84541
     2017.70020       325.47371         4.85436
     2017.70294       329.23447         4.96530
     2017.70568       321.90822         4.83647
     2017.70841       324.41898         4.70943
     2017.71115       324.09574         4.88836
     2017.71389       325.14450         4.80247
     2017.71663       331.80826         4.74074
     2017.71937       327.58901         4.80336
     2017.72210       323.08777         4.78547
     2017.72484       314.73553         4.73627
     2017.72758       323.23429         4.73895
     2017.73032       324.97504         4.78726
     2017.73305       323.47980         4.72374
     2017.73579       318.92856         4.72911
     2017.73853       317.56332         4.74969
     2017.74127       324.08208         4.73984
     2017.74401       328.13783         4.92772
     2017.74674       319.91559         4.77026
     2017.74948       325.02435         4.73448
     2017.75222       316.34211         4.75505
     2017.75496       316.26686         4.72732
     2017.75770       318.39262         4.83736
     2017.76043       318.56738         4.80157
     2017.76317       324.82114         4.81768
     2017.76591       323.25390         4.78368
     2017.76865       324.77465         4.71837
     2017.77138       315.59141         4.71390
     2017.77412       319.37417         4.83110
     2017.77686       319.24293         4.75953
     2017.77960       321.19069         4.82573
     2017.78234       322.14044         4.73090
     2017.78507       311.84520         4.69153
     2017.78781       316.61096         4.71032
     2017.79055       314.45072         4.85525
     2017.79329       323.34147         4.86062
     2017.79603       321.45623         4.75684
     2017.79876       330.70899         4.80336
     2017.80150       325.90175         4.81589
     2017.80424       323.74851         4.73179
     2017.80698       321.28026         4.87583
     2017.80971       309.24602         4.74879
     2017.81245       311.11278         4.70585
     2017.81519       316.09754         4.81499
     2017.81793       315.99929         4.71479
     2017.82067       308.02205         4.88030
     2017.82340       317.78181         4.73000
     2017.82614       313.99057         4.68795
     2017.82888       312.81433         4.66917
     2017.83162       322.12208         4.76937
     2017.83436       317.11784         4.75684
     2017.83709       319.35660         4.87404
     2017.83983       308.24736         4.69153
     2017.84257       315.95311         4.67364
     2017.84531       308.77187         4.71211
     2017.84804       311.18663         4.71748
     2017.85029       311.87171         6.14444
     2017.85352       318.37615         4.77921
     2017.85626       319.87290         4.86509
     2017.85900       319.36066         4.81947
     2017.86173       320.85042         4.83199
     2017.86447       317.89318         4.72553
     2017.86721       325.56794         4.81857
     2017.86995       318.94769         4.70674
     2017.87269       322.94445         4.71300
     2017.87542       323.28321         4.74074
     2017.87816       324.70897         4.68617
     2017.88090       322.75672         4.75058
     2017.88364       320.78548         4.76847
     2017.88637       326.43424         4.75595
     2017.88911       321.44700         4.84094
     2017.89185       320.81076         4.88567
     2017.89459       320.27551         4.80247
     2017.89733       314.81127         4.78189
     2017.90006       315.92203         4.76221
     2017.90280       314.79879         4.83826
     2017.90554       318.18654         4.80784
     2017.90828       321.47130         4.73269
     2017.91102       317.85006         4.82573
     2017.91375       315.52882         4.84541
     2017.91649       317.80658         4.70495
     2017.91923       321.25133         4.78994
     2017.92197       318.70309         4.72374
     2017.92470       314.37085         4.73537
     2017.92744       309.62861         4.73448
     2017.93018       305.14936         4.71390
     2017.93292       312.36912         4.75237
     2017.93566       311.17388         4.71211
     2017.93839       315.32364         4.73269
     2017.94113       308.25340         4.76132
     2017.94387       316.61615         4.76937
     2017.94661       315.98491         4.86420
     2017.94935       315.88267         4.74611
     2017.95208       315.49743         4.82841
     2017.95482       315.14919         4.71479
     2017.95756       315.31094         4.74790
     2017.96030       320.03470         4.73358
     2017.96303       316.48646         4.68706
     2017.96577       323.81822         4.82663
     2017.96851       319.29397         4.66469
     2017.97125       312.96573         4.68617
     2017.97399       315.14149         4.71211
     2017.97672       316.49425         4.68795
     2017.97946       313.16301         4.69869
     2017.98220       307.51076         4.69601
     2017.98494       313.26852         4.67811
     2017.98767       310.01728         4.70495
     2017.99041       312.25404         4.71927
     2017.99315       313.23279         4.73000
     2017.99589       311.48555         4.75505
     2017.99863       313.30331         4.68080
     2018.00136       307.74607         4.68438
     2018.00410       297.83183         4.72642
     2018.00684       307.18558         4.73805
     2018.00958       306.96334         4.70227
     2018.01180       315.38439         6.08808
     2018.05986       316.86136         9.18982
     2018.06160       309.52174         4.72016
     2018.06433       314.06550         4.89730
     2018.06707       320.12026         4.79889
     2018.06981       315.88201         4.79173
     2018.07255       311.07477         4.82484
     2018.07529       304.30253         4.85794
     2018.07802       306.07129         4.94919
     2018.08076       303.07404         4.91967
     2018.08350       311.92080         4.77295
     2018.08624       308.48356         4.77563
     2018.08898       303.80532         5.06460
     2018.09171       307.71808         4.81947
     2018.09445       313.81683         4.82573
     2018.09719       313.63259         4.96261
     2018.09993       308.87035         4.79621
     2018.10266       310.57711         4.80336
     2018.10540       304.17686         4.93309
     2018.10814       311.92862         4.83557
     2018.11088       311.19238         4.77921
     2018.11362       307.39514         4.77563
     2018.11635       309.45490         4.79173
     2018.11909       307.26065         4.92146
     2018.12183       311.29641         4.89462
     2018.12457       312.85417         4.77026
     2018.12731       307.83193         4.76221
     2018.13004       315.29869         4.82663
     2018.13278       317.72744         4.77652
     2018.13552       315.86020         4.79084
     2018.13826       312.30496         4.77652
     2018.14099       312.37972         4.77205
     2018.14373       308.62147         4.75147
     2018.14647       311.71923         5.01361
     2018.14921       307.02499         4.92235
     2018.15195       316.20875         4.83915
     2018.15468       300.26351         4.84094
     2018.15742       310.29826         4.79710
     2018.16016       312.57602         4.76847
     2018.16290       310.35878         4.85436
     2018.16564       315.96654         4.88299
     2018.16837       305.30229         4.81499
     2018.17111       308.10105         4.81410
     2018.17385       307.67881         4.78994
     2018.17659       309.22457         4.75863
     2018.17932       310.21933         4.83647
     2018.18206       319.37508         4.93488
     2018.18480       316.31684         4.91609
     2018.18754       310.16260         4.76132
     2018.19028       307.40136         4.75774
     2018.19301       314.35411         4.77921
     2018.19575       319.64487         4.78547
     2018.19849       318.82063         4.79710
     2018.20123       319.89339         4.86957
     2018.20397       316.61315         4.75863
     2018.20670       312.03690         4.76400
     2018.20944       312.70166         4.79084
     2018.21218       310.89842         4.77563
     2018.21492       297.72718         4.77384
     2018.21765       313.90094         4.70943
     2018.22039       315.59469         4.70406
     2018.22313       315.25245         4.72821
     2018.22587       307.02221         4.70137
     2018.22861       305.02597         4.69869
     2018.23134       309.68972         4.70495
     2018.23408       308.18948         4.72464
     2018.23682       308.55124         4.70674
     2018.23956       309.06200         4.68795
     2018.24230       311.74876         4.70585
     2018.24503       313.71151         4.72464
     2018.24777       310.22227         4.76758
     2018.25051       311.39403         4.67185
     2018.25325       309.21279         4.71837
     2018.25598       309.47254         4.70137
     2018.25872       309.70530         4.82484
     2018.26146       311.16906         4.84362
     2018.26420       317.51182         4.73716
     2018.26694       314.09158         4.68080
     2018.26967       307.31933         4.68259
     2018.27241       314.06509         4.72374
     2018.27515       321.93985         4.69959
     2018.27789       314.60361         4.87762
     2018.28062       311.42536         4.82931
     2018.28336       307.20912         4.73448
     2018.28610       310.21388         4.72106
     2018.28884       315.12564         4.67990
     2018.29158       313.00340         4.82931
     2018.29431       309.03215         4.74163
     2018.29705       310.03791         4.65754
     2018.29979       311.12967         4.68259
     2018.30253       307.23143         4.74879
     2018.30527       308.60319         4.67185
     2018.30800       307.75994         4.65485
     2018.31074       308.79370         4.64143
     2018.31348       310.71646         4.67275
     2018.31622       313.95922         4.66112
     2018.31895       313.89697         4.78189
     2018.32169       311.52773         4.65843
     2018.32443       313.63249         4.65306
     2018.32717       308.57425         4.68974
     2018.32991       311.80701         4.83020
     2018.33264       314.93676         4.67901
     2018.33538       308.22352         4.82663
     2018.33812       305.61828         4.83468
     2018.34086       312.82404         4.72285
     2018.34360       309.94479         4.71658
     2018.34633       310.89955         4.65396
     2018.34907       310.94731         4.64770
     2018.35181       316.08907         4.86957
     2018.35455       317.07783         4.64859
     2018.35728       315.93158         4.67364
     2018.36002       313.28434         4.66112
     2018.36276       314.73910         4.72911
     2018.36550       318.82386         4.67364
     2018.36824       316.87361         4.65306
     2018.37097       314.83637         4.71748
     2018.37371       315.37413         4.64948
     2018.37645       311.59789         4.81857
     2018.37919       313.68565         4.67632
     2018.38193       313.09340         4.68259
     2018.38466       315.38316         4.65933
     2018.38740       316.48592         4.69422
     2018.39014       318.14468         4.66738
     2018.39288       314.56644         4.73537
     2018.39561       318.76219         4.68885
     2018.39835       319.76195         4.64143
     2018.40109       319.25871         4.72642
     2018.40383       316.17947         4.71122
     2018.40657       319.15722         4.71927
     2018.40930       326.50198         4.78547
     2018.41204       324.64974         4.74253
     2018.41478       318.47350         4.67275
     2018.42299       323.04377         4.72195
     2018.42573       319.48253         4.69153
     2018.42847       322.34129         4.69601
     2018.43121       325.73704         4.70406
     2018.43394       318.11080         4.70853
     2018.43668       315.67356         4.72195
     2018.43942       322.26032         4.78368
     2018.44216       315.24408         4.64322
     2018.44490       319.76283         4.67901
     2018.44763       322.38159         4.82036
     2018.45037       316.23635         4.73984
     2018.45311       320.04011         4.65933
     2018.45585       321.83986         4.67543
     2018.45859       316.12362         4.73627
     2018.46132       315.55338         4.68974
     2018.46406       320.54814         4.72106
     2018.46680       321.86190         4.72016
     2018.46954       318.94565         4.73984
     2018.47227       320.28941         4.79173
     2018.47501       324.19317         4.68348
     2018.47775       320.66193         4.68974
     2018.48049       320.61669         4.81499
     2018.48323       322.33544         4.67543
     2018.48596       317.83420         4.66290
     2018.48870       322.83696         4.75326
     2018.49144       317.63172         4.67543
     2018.49418       322.71947         4.81589
     2018.49692       319.38123         4.75058
     2018.49965       321.71499         4.67990
     2018.50239       316.85875         4.67096
     2018.50513       319.58551         4.73358
     2018.50787       319.79926         4.73895
     2018.51060       323.61002         4.81142
     2018.51334       320.96378         4.73805
     2018.51608       321.18054         4.66827
     2018.51882       321.55229         4.74342
     2018.52156       315.96705         4.76668
     2018.52429       318.56881         4.71211
     2018.52703       319.69357         4.67990
     2018.52977       321.02133         4.66917
     2018.53251       320.51008         4.70764
     2018.53525       324.49584         4.68617
     2018.53798       317.68560         4.67632
     2018.54072       321.79336         4.70674
     2018.54346       328.19311         4.68974
     2018.54620       322.85587         4.62086
     2018.54893       321.47563         4.69690
     2018.55167       315.84639         4.70227
     2018.55441       318.97615         4.70495
     2018.55715       325.67190         4.72106
     2018.55989       322.71266         4.75863
     2018.56238       326.99609         5.11291
     2018.56405       351.67638        73.10973
     2018.56679       312.77014        67.54054
     2018.56953       372.22490        63.12367
     2018.57227       324.42066        60.08813
     2018.57501       377.63441        57.54106
     2018.57774       299.31017        80.38142
     2018.58048       343.41193        56.63926
     2018.58322       324.58069        60.00492
     2018.58596       325.66045        62.03309
     2018.58869       332.36420        60.77164
     2018.59143       301.43096        61.49809
     2018.59417       304.99672        67.01360
     2018.59691       283.82648        66.03396
     2018.59965       299.51223        70.09029
     2018.60238       297.16799        69.01671
     2018.60512       336.73375        63.54952
     2018.60786       331.84951        68.57923
     2018.61060       286.67627        65.47301
     2018.61334       292.41102        65.28066
     2018.61607       278.54778        66.48307
     2018.61881       306.85554        68.95945
     2018.62155       332.72530        74.20835
     2018.62429       418.38006        75.21752
     2018.62702       297.98681        74.46243
     2018.62976       350.23057        66.72820
     2018.63250       365.78833        85.48628
     2018.63524       319.59309        62.73807
     2018.63798       359.84284        65.58574
     2018.64071       335.20360        62.88122
     2018.64345       321.84936        58.51086
     2018.64619       313.96412        61.18049
     2018.64893       293.84388        65.58037
     2018.65167       332.84563        68.47992
     2018.65440       264.82539        69.84784
     2018.65714       306.10515        70.23254
     2018.65988       328.11191        75.45728
     2018.66262       300.25666        80.29733
     2018.66535       327.27942        82.27003
     2018.66809       370.95918        80.37069
     2018.67083       289.01994        71.07440
     2018.67357       329.41370        70.36316
     2018.67631       310.44545        64.49964
     2018.67904       316.13521        61.03556
     2018.68178       221.62297        58.48671
     2018.68452       261.45973        58.24784
     2018.68726       284.49148        60.40125
     2018.69000       312.09824        56.30377
     2018.69273       235.50800        55.12820
     2018.69547       286.11976        54.04389
     2018.69821       283.56252        52.98015
     2018.70095       311.19327        53.23691
     2018.70368       295.68703        56.29303
     2018.70642       291.69779        58.52786
     2018.70916       301.66955        69.38889
     2018.71190       308.69131        61.00156
     2018.71464       330.45606        63.51731
     2018.71737       296.98582        68.75816
     2018.72011       316.44858        75.55480
     2018.72285       320.14534        81.63930
     2018.72559       255.77209        80.70886
     2018.72833       286.62885        79.13428
     2018.73106       282.89561        75.12089
     2018.73380       296.55337        63.77318
     2018.73654       297.99913        65.01406
     2018.73928       292.81688        55.51111
     2018.74201       310.63364        49.31388
     2018.74475       306.66040        45.65119
     2018.74749       321.91516        43.11397
     2018.75023       337.86691        43.10592
     2018.75297       284.52767        41.12607
     2018.75570       306.97543        40.43271
     2018.75844       315.01419        42.46983
     2018.76118       339.65295        45.23071
     2018.76392       358.44470        48.46039
     2018.76666       353.31746        51.79653
     2018.76939       358.41222        50.88399
     2018.77213       353.39998        51.79027
     2018.77487       318.87173        51.34384
     2018.77761       338.44849        49.51518
     2018.78034       318.49825        47.42975
     2018.78308       308.03701        45.75855
     2018.78582       312.43877        49.71737
     2018.78856       308.33352        47.60511
     2018.79130       284.76928        44.55257
     2018.79403       295.33304        46.32129
     2018.79677       307.64680        48.77888
     2018.79951       281.67456        52.43352
     2018.80225       266.45231        54.25323
     2018.80499       309.15407        59.44488
     2018.81046       288.38759        76.79568
     2018.81320       337.28634        86.67259
     2018.81594       323.17110        84.21231
     2018.81867       346.60286        86.26105
     2018.82141       268.43762        81.77350
     2018.82415       331.20038        73.82902
     2018.82689       346.52313        65.12320
     2018.82963       354.72989        59.80452
     2018.83236       345.44865        54.66030
     2018.83510       365.65541        53.08393
     2018.83784       317.90316        53.03204
     2018.84058       329.96292        54.17272
     2018.84332       337.58768        57.14563
     2018.84605       359.78844        61.77901
     2018.84879       329.52520        59.96377
     2018.85153       228.19495        65.86039
     2018.85427       332.57771        73.78787
     2018.85700       365.60047        81.09088
     2018.85974       308.03323        88.20601
     2018.86248       333.59098        91.88838
     2018.86522       343.85074        91.70677
     2018.86796       312.75850        93.26077
     2018.87069       289.31326        95.36051
     2018.87343       343.93402        88.09150
     2018.87617       244.77477        80.91642
     2018.87891       307.51253        75.24525
     2018.88164       270.05929        69.98383
     2018.88438       247.29505        67.16300
     2018.88712       329.71681        66.73536
     2018.88986       285.63356        67.47523
     2018.89260       312.51432        62.35695
     2018.89533       278.73308        67.75257
     2018.89807       320.58784        79.09850
     2018.90081       324.78559        90.53389
     2018.90355       322.41135        87.86515
     2018.90629       286.55211        99.45353
     2018.90902       308.18987        94.30662
     2018.91176       356.32863        92.83761
     2018.91450       353.09438        89.14808
     2018.91724       366.75914        85.46481
     2018.91997       323.37290        87.95283
     2018.92271       313.19066        95.10912
     2018.92545       319.09141       105.55950
     2018.92819       271.12017       100.46358
     2018.93093       313.82293        98.03730
     2018.93366       303.50369        91.79087
     2018.93640       315.41745        94.31914
     2018.93914       325.30720        93.88255
     2018.94188       361.12396        93.31087
     2018.94462       315.95172        95.79978
     2018.94735       325.17348       102.06679
     2018.95009       362.43223       111.94728
     2018.95283       292.86799       110.31187
     2018.95557       359.62275       113.88598
     2018.95830       283.08351       118.61867
     2018.96104       303.40827       117.53973
     2018.96652       325.88578       133.69170
     2018.96926       343.65754       133.60492
     2018.97199       304.38330       135.94353
     2018.97473       322.25506       141.09759
     2018.97747       343.95381       147.86650
     2018.98021       257.43557       150.73563
     2018.98295       286.04433       137.85181
     2018.98568       258.37809       129.25782
     2018.98842       264.13884       128.56984
     2018.99116       281.46360       121.84835
     2018.99390       338.10936       115.58761
     2018.99663       308.52112       111.35055
     2018.99937       352.93588       110.47380
     2019.00211       377.59563       101.90039
     2019.00485       365.53539       102.99902
     2019.00759       308.08415       117.00652
     2019.01032       404.32691       112.48228
     2019.01306       381.82366       105.41099
     2019.01580       362.51942        90.64751
     2019.01854       296.34618        70.89547
     2019.02128       341.17694        63.34107
     2019.02401       313.63770        70.07061
     2019.02675       355.90945        62.71839
     2019.02949       330.12821        62.23707
     2019.03223       311.00197        60.23127
     2019.03496       294.70673        56.56411
     2019.03770       321.52048        54.53147
     2019.04044       319.00424        52.95689
     2019.04318       320.96300        53.91595
     2019.04592       302.76076        55.01905
     2019.04865       300.23452        54.06178
     2019.05139       291.66927        56.01301
     2019.05413       271.48403        60.09976
     2019.05687       327.96779        64.55600
     2019.05961       288.93455        72.55236
     2019.06234       337.64931        70.32290
     2019.06508       312.53206        78.98219
     2019.06782       324.11282        85.21163
     2019.07056       323.03358        75.00280
     2019.07329       305.83334        68.92009
     2019.07603       342.17809        61.73070
     2019.07877       347.67185        63.20776
     2019.08151       357.40361        59.30173
     2019.08425       311.43937        59.10580
     2019.08698       365.09913        59.76516
     2019.08972       335.91688        60.73227
     2019.09246       356.76964        63.18361
     2019.09520       307.77840        66.54212
     2019.09794       335.72616        66.85793
     2019.10067       312.56591        64.35023
     2019.10341       320.83167        61.91679
     2019.10615       320.45043        63.79376
     2019.10889       353.30519        62.04204
     2019.11162       344.25295        61.72175
     2019.11436       324.56670        63.24534
     2019.11710       312.22646        65.73514
     2019.11984       264.34522        69.69486
     2019.12258       291.45198        71.14061
     2019.12531       333.58573        82.41585
     2019.12805       332.79549        72.73487
     2019.13079       318.47025        70.79169
     2019.13353       307.47501        69.66086
     2019.13627       330.81477        70.80511
     2019.13900       302.25452        76.79478
     2019.14174       287.57128        78.42214
     2019.14448       309.47604        77.66438
     2019.14722       293.06780        75.26762
     2019.14995       271.47756        72.31886
     2019.15269       281.10031        72.20882
     2019.15543       300.43707        69.11512
     2019.15817       269.95783        67.43408
     2019.16091       316.01159        66.60653
     2019.16364       274.69934        69.08560
     2019.16638       290.27010        72.09430
     2019.16912       268.71586        74.29424
     2019.17186       248.78262        77.15622
     2019.17460       284.33938        75.64963
     2019.17733       283.45013        79.53509
     2019.18007       221.51489        80.09603
     2019.18281       326.02865        84.61669
     2019.18555       320.06041        82.07589
     2019.18828       323.33416        86.34336
     2019.19102       337.27892        83.09310
     2019.19376       333.02768        80.14613
     2019.19650       333.86344        77.21705
     2019.19924       303.21620        77.52839
     2019.20197       298.70795        80.50489
     2019.20471       286.79771        85.77347
     2019.20745       291.95047        89.26528
     2019.21019       315.44323        90.21181
     2019.21292       260.05798        91.11094
     2019.21566       386.94974        92.68283
     2019.21840       324.69150        94.51865
     2019.22114       279.95126       101.26608
     2019.22388       218.11502       108.93053
     2019.22661       271.99177       118.01747
     2019.22935       278.83353       127.65998
     2019.23209       166.90929       134.42978
     2019.23483       206.08705       139.78336
     2019.23757       222.22381       140.47402
     2019.24030       282.09456       138.59526
     2019.24304       245.68132       138.05042
     2019.24578       326.97408        75.14416
     2019.24852       259.80784        77.13385
     2019.25125       277.73459        63.64346
     2019.25399       246.57935        58.47239
     2019.25673       252.06311        57.38897
     2019.25947       257.46287        58.56901
     2019.26221       283.58163        64.05321
     2019.26494       263.53138        66.14310
     2019.26768       291.17314        72.50405
     2019.27042       347.14490        77.48634
     2019.27316       322.12566        78.18775
     2019.27590       307.43441        76.67311
     2019.27863       326.31417        72.28039
     2019.28137       334.23193        62.41958
     2019.28411       300.83669        63.69714
     2019.28685       282.27745        58.75957
     2019.28958       274.79620        59.31068
     2019.29232       327.89696        64.42091
     2019.29506       317.87072        65.92034
     2019.29780       325.96248        66.91966
     2019.30054       300.23123        71.47878
     2019.30327       267.92999        67.16926
     2019.30601       247.34075        65.55085
     2019.30875       303.92051        65.78703
     2019.31149       367.21327        71.94311
     2019.31423       291.33202        66.36140
     2019.31696       260.91078        64.48264
     2019.31970       319.16654        64.30818
     2019.32244       297.18330        65.64210
     2019.32518       358.89606        64.81634
     2019.32791       321.84281        60.54350
     2019.33065       305.72857        61.45873
     2019.33339       304.29033        62.29701
     2019.33613       348.45809        65.32540
     2019.33887       335.45384        69.93552
     2019.34160       299.33060        77.21795
     2019.34434       317.70636        85.91393
     2019.34708       326.79212        96.75616
     2019.34982       380.14388       107.86143
     2019.35256       379.99763       120.28630
     2019.35529       356.21539       125.14692
     2019.35803       289.38515       119.56700
     2019.36077       297.62091       107.41321
     2019.36351       315.35766        93.12121
     2019.36624       290.14742        83.08505
     2019.36898       289.85518        87.51982
     2019.37172       283.39294       120.41512
     2019.37446       292.49670       108.86343
     2019.38267       330.12797       145.01257
     2019.38541       347.89473       129.19520
     2019.38815       280.76648       114.08102
     2019.39089       246.46824       110.93365
     2019.39362       303.01100       110.49706
     2019.39636       305.87976       114.35031
     2019.39910       336.82752       108.63261
     2019.40184       363.89027       120.06890
     2019.40457       385.10303       125.52356
     2019.40731       305.83579       129.81608
     2019.41005       304.36655       129.56469
     2019.41279       298.48831       125.03509
     2019.41553       352.29506       108.54315
     2019.41826       419.35982       115.42836
     2019.42100       342.73458       118.60257
     2019.42374       453.87134       120.98323
     2019.42648       263.11309       117.83049
     2019.42922       364.10085        99.96169
     2019.43195       262.73061        82.60462
     2019.43469       318.03337        73.25198
     2019.43743       343.94613        77.99450
     2019.44017       332.34088        72.32154
     2019.44290       285.97564        67.80804
     2019.44564       300.17140        64.22677
     2019.44838       270.89016        62.00983
     2019.45112       276.89691        61.30395
     2019.45386       254.35367        66.98676
     2019.45659       181.85943        66.95276
     2019.45933       271.76619        66.63516
     2019.46207       265.98095        71.07530
     2019.46481       210.22070        73.63399
     2019.46755       278.36246        75.48949
     2019.47028       332.57922        75.16652
     2019.47302       298.15698        74.83282
     2019.47576       336.50273        72.83686
     2019.47850       291.20849        68.48171
     2019.48123       291.67825        67.06817
     2019.48397       325.62101        66.17263
     2019.48671       315.30977        69.47746
     2019.48945       328.36152        78.03924
     2019.49219       329.16228        86.98482
     2019.49492       343.26604        88.58892
     2019.49766       277.92080        91.58331
     2019.50040       295.26656        91.66204
     2019.50314       378.44331        90.96063
     2019.50587       351.57007        88.30890
     2019.50861       330.11883        87.34626
     2019.51135       355.34759        84.53169
     2019.51409       363.97534        81.32259
     2019.51683       363.71610        78.92136
     2019.51956       312.10986        75.92697
     2019.52230       349.99962        71.34011
     2019.52504       324.80338        70.15023
     2019.52778       328.39213        66.38466
     2019.53052       298.16089        62.28717
     2019.53325       312.77265        60.60255
     2019.53599       268.15341        60.90941
     2019.53873       326.56816        57.54643
     2019.54147       289.90692        66.03932
     2019.54420       381.49068        83.67194
     2019.54694       366.45544        84.12463
     2019.54968       324.92220        81.99000
     2019.55242       299.92795        96.44304
     2019.55516       339.95571        72.98537
     2019.55789       285.19047       118.46211
     2019.56063       322.58623        77.74132
     2019.56337       337.18598        85.90766
     2019.56611       289.54274        67.57901
     2019.56885       292.66050        69.71633
     2019.57158       367.54526        82.13851
     2019.57432       334.42702        66.90445
     2019.57706       338.23377        85.78510
     2019.57980       350.35453        69.69038
     2019.58253       343.21229        95.01965
     2019.58527       311.53905        78.15465
     2019.58801       375.85681        74.50896
     2019.59075       407.43856        69.50072
     2019.59349       336.61232        63.80002
     2019.59622       362.03108        61.50078
     2019.59896       333.78284        64.23929
     2019.60170       316.52359        62.50725
     2019.60444       301.61335        65.63673
     2019.60718       304.78511        65.27351
     2019.60991       347.75587        64.21156
     2019.61265       348.86763        97.50140
     2019.61539       322.94738        69.01850
     2019.61813       333.36414        70.11892
     2019.62086       353.74590        79.01709
     2019.62360       384.02566        74.12426
     2019.62634       324.84641        73.94891
     2019.62908       393.32117        87.56276
     2019.63182       293.81893        70.38731
     2019.63455       256.67769        65.52848
     2019.63729       216.13045        61.77185
     2019.64134       316.01500         4.83736
     2019.64407       322.10076         4.78905
     2019.64681       316.36151         4.75684
     2019.64955       317.64027         4.72106
     2019.65229       323.80403         4.72911
     2019.65503       318.27679         4.80694
     2019.65776       315.21854         4.92504
     2019.66050       324.33030         4.83378
     2019.66324       317.52106         4.78100
     2019.66598       320.31582         4.81231
     2019.66872       325.32858         4.74253
     2019.67145       318.41133         4.80336
     2019.67419       319.16209         4.73627
     2019.67693       317.75085         4.87136
     2019.67967       314.14961         4.79979
     2019.68240       317.65236         4.76758
     2019.68514       324.03012         4.83110
     2019.68788       319.98088         4.82215
     2019.69062       318.77664         4.77026
     2019.69336       312.29040         4.72553
     2019.69609       319.12215         4.78279
     2019.69883       311.85191         4.95188
     2019.70157       318.96667         4.80784
     2019.70431       320.12343         4.78100
     2019.70705       314.11419         4.68348
     2019.70978       323.76694         4.80247
     2019.71252       323.16770         4.73358
     2019.71526       320.34346         4.69690
     2019.71800       318.21322         4.90356
     2019.72073       314.05397         4.86778
     2019.72347       318.04773         4.72195
     2019.72621       314.15049         4.92593
     2019.72895       315.99225         4.79263
     2019.73169       322.16001         4.73179
     2019.73442       325.61876         4.86688
     2019.73716       318.67552         4.77474
     2019.73990       323.23628         4.93219
     2019.74264       325.76804         4.81589
     2019.74538       320.01479         4.70585
     2019.74811       316.85955         4.79352
     2019.75085       315.28431         4.80963
     2019.75359       319.97507         4.97245
     2019.75633       320.81983         4.80963
     2019.75906       316.47558         4.72732
     2019.76180       313.99134         4.66738
     2019.76454       319.96010         4.78994
     2019.76728       315.49186         4.89462
     2019.77002       318.05061         4.82036
     2019.77275       315.68737         4.91520
     2019.77549       318.51413         4.81499
     2019.77823       318.24589         4.75505
     2019.78097       324.25865         4.77384
     2019.78371       316.44240         4.78547
     2019.78644       315.91016         4.85525
     2019.78918       321.05292         5.02971
     2019.79192       333.81568         4.84094
     2019.79466       330.02344         4.84631
     2019.79739       325.36619         4.83915
     2019.80013       314.98195         4.83020
     2019.80287       321.30971         4.79621
     2019.80561       325.68847         4.94740
     2019.80835       314.95622         4.76668
     2019.81108       312.45598         4.80336
     2019.81382       319.68374         4.88657
     2019.81656       324.50850         4.86062
     2019.81930       315.03126         4.79889
     2019.82203       314.58301         4.78279
     2019.82477       312.00977         4.78547
     2019.82751       315.01653         4.82663
     2019.83025       319.16029         4.91520
     2019.83299       311.94204         5.00734
     2019.83572       315.03080         4.78816
     2019.83846       320.70556         4.79621
     2019.84120       315.81332         4.77652
     2019.84394       318.58608         4.94830
     2019.84668       310.52183         4.79084
     2019.84941       318.72559         4.81589
     2019.85215       317.33135         4.78547
     2019.85489       321.70111         4.87046
     2019.85763       319.11886         4.82663
     2019.86036       315.49362         4.84273
     2019.86310       315.22138         4.79621
     2019.86584       325.67314         4.85704
     2019.86858       316.77590         4.80784
     2019.87132       317.45165         4.99840
     2019.87405       317.62241         4.82931
     2019.87679       317.86217         4.98766
     2019.87953       325.88393         4.81947
     2019.88227       336.43069         4.85615
     2019.88501       324.72044         4.76400
     2019.88774       320.39420         4.89372
     2019.89048       326.69396         4.74163
     2019.89322       327.61072         4.81052
     2019.89596       322.91947         4.88567
     2019.89869       323.31623         4.78100
     2019.90143       322.08299         4.76042
     2019.90417       323.79475         4.78547
     2019.90691       323.72151         4.75863
     2019.90965       321.25826         4.76847
     2019.91238       323.93502         4.74074
     2019.91512       326.64578         4.75684
     2019.91786       327.55954         4.70495
     2019.92060       321.27629         4.75505
     2019.92334       327.97405         4.80068
     2019.92607       325.21481         4.77742
     2019.92881       320.95557         4.80963
     2019.93155       324.64033         4.75237
     2019.93429       325.93808         4.73716
     2019.93702       315.81584         4.77384
     2019.93976       320.61660         4.85078
     2019.94250       319.60936         4.82573
     2019.94524       321.55411         4.85883
     2019.94798       317.00387         4.72195
     2019.95071       322.14963         4.97335
     2019.95345       323.77939         4.81499
     2019.95619       322.01015         4.81231
     2019.95893       313.74290         4.79263
     2019.96167       324.40466         4.78458
     2019.96440       325.73142         4.86331
     2019.96714       321.78018         4.92146
     2019.96988       323.15194         4.82394
     2019.97262       322.53769         4.83110
     2019.97535       319.27945         4.79263
     2019.97809       316.20621         4.72642
     2019.98083       314.37397         4.72642
     2019.98357       311.87372         4.78547
     2019.98631       319.24048         4.78279
     2019.98904       313.71424         4.78726
     2019.99178       317.72200         4.75684
     2019.99452       319.16876         4.75863
     2019.99726       322.60351         4.77652
     2020.00000       332.97027         4.81410
     2020.00273       320.03703         4.80247
     2020.00547       326.01879         4.91788
     2020.00821       318.92154         4.89730
     2020.01095       320.96330         4.94203
     2020.01368       315.05706         4.86778
     2020.01642       319.70482         4.90178
     2020.01916       320.18058         4.82752
     2020.02190       315.79833         4.86957
     2020.02464       312.06509         4.86241
     2020.02737       320.69885         4.77921
     2020.03011       318.72161         4.80336
     2020.03285       303.95336         4.73090
     2020.03559       308.26412         4.67364
     2020.03833       302.49488         4.71837
     2020.04106       315.19364         4.83826
     2020.04380       312.68140         4.77205
     2020.04654       314.50015         4.66380
     2020.04928       313.27291         4.71658
     2020.05201       314.27667         4.73627
     2020.05475       315.44743         4.70764
     2020.05749       312.30719         4.72195
     2020.06023       316.95294         4.68080
     2020.06297       312.24870         4.78010
     2020.06570       317.91846         4.71837
     2020.06844       315.47622         4.82752
     2020.07118       319.65097         4.71479
     2020.07392       317.23473         4.74969
     2020.07666       315.83149         4.70495
     2020.07939       311.39925         4.71479
     2020.08213       317.10301         4.73537
     2020.08487       314.50576         4.79889
     2020.08761       314.46552         4.67990
     2020.09034       313.91728         4.69780
     2020.09308       311.57304         4.70943
     2020.09582       318.34479         4.67453
     2020.09856       318.01955         4.69153
     2020.10130       314.89731         4.72285
     2020.10403       313.11407         4.78368
     2020.10677       307.85683         4.70227
     2020.10951       302.77858         4.65843
     2020.11225       307.79334         4.69243
     2020.11498       314.25810         4.66380
     2020.11772       310.99786         4.85525
     2020.12046       313.07961         4.84720
     2020.12320       312.98337         4.69422
     2020.12594       312.09413         4.67632
     2020.12867       306.26489         4.66827
     2020.13141       309.54265         4.67006
     2020.13415       305.38140         4.71569
     2020.13689       310.01916         4.75684
     2020.13963       312.26592         4.75326
     2020.14236       308.55968         4.72732
     2020.14510       316.12844         4.74074
     2020.14784       309.85919         4.69959
     2020.15058       303.42395         4.70048
     2020.15331       305.93971         4.70764
     2020.15605       303.38947         4.69511
     2020.15879       311.18522         4.71032
     2020.16153       318.20298         4.70227
     2020.16427       312.79874         4.73090
     2020.16700       314.25350         4.72732
     2020.16974       312.71226         4.74253
     2020.17248       314.29901         4.67275
     2020.17522       315.95377         4.71032
     2020.17796       316.43353         4.69064
     2020.18069       308.83629         4.65217
     2020.18343       313.51604         4.68974
     2020.18617       313.34280         4.63785
     2020.18891       309.34256         4.74521
     2020.19164       312.77732         4.80426
     2020.19438       311.26308         4.78100
     2020.19712       308.25183         4.77563
     2020.19986       310.30259         4.74969
     2020.20260       309.57335         4.73627
     2020.20533       312.47211         4.75326
     2020.20807       313.14186         4.78905
     2020.21081       308.91062         4.76937
     2020.21355       309.03438         5.25785
     2020.21629       310.16114         4.97603
     2020.21902       308.73090         4.81321
     2020.22176       307.23965         4.78458
     2020.22450       319.19641         4.86062
     2020.22724       313.12617         4.75416
     2020.22997       314.52993         4.73179
     2020.23271       311.78869         4.72195
     2020.23545       315.87544         4.74163
     2020.23819       312.86420         4.77563
     2020.24093       314.14196         4.81410
     2020.24366       314.82872         4.98587
     2020.24640       314.91547         4.73895
     2020.24914       306.24723         4.75147
     2020.25188       307.35999         4.79621
     2020.25462       308.37575         4.76668
     2020.25735       311.96551         4.76489
     2020.26009       319.70626         4.75237
     2020.26283       315.56602         4.74969
     2020.26557       313.33878         4.76042
     2020.26830       309.43754         4.79173
     2020.27104       311.64429         4.79889
     2020.27378       314.35705         4.75416
     2020.27652       312.65781         4.74611
     2020.27926       312.28657         4.83289
     2020.28199       311.95633         4.86241
     2020.28473       307.88308         4.77205
     2020.28747       311.68984         4.78637
     2020.29021       311.33860         4.75505
     2020.29295       311.92836         4.76579
     2020.29568       314.96111         4.76758
     2020.29842       316.40287         4.77831
     2020.30116       314.70563         4.74969
     2020.30390       315.94239         4.74521
     2020.30663       315.25415         4.82305
     2020.30937       315.06790         4.88388
     2020.31211       308.71266         4.87673
     2020.31485       313.35442         4.87225
     2020.31759       309.92918         4.70943
     2020.32032       316.94194         4.83736
     2020.32306       306.58569         4.74700
     2020.32580       308.94045         4.74790
     2020.32854       309.58121         4.79352
     2020.33128       314.13297         4.73090
     2020.33401       317.45372         4.82036
     2020.33675       314.07348         4.87046
     2020.33949       309.58024         4.72821
     2020.34223       307.43500         4.86957
     2020.34496       315.09676         4.82484
     2020.34770       304.93951         4.72911
     2020.35044       313.43027         4.81052
     2020.35318       309.36503         4.82305
     2020.35592       309.68879         4.84720
     2020.35865       315.92254         4.69780
     2020.36139       317.34330         4.73984
     2020.36413       314.99706         4.71211
     2020.36687       314.06482         4.80426
     2020.36961       311.02858         4.82394
     2020.37234       311.22633         4.77742
     2020.37508       320.26009         4.75058
     2020.37782       319.24485         4.73000
     2020.38056       312.65561         4.70943
     2020.38329       313.78236         4.73448
     2020.38603       314.20112         4.75147
     2020.38877       316.34688         4.81052
     2020.39151       313.25464         4.73090
     2020.39425       311.92440         4.70495
     2020.39698       313.90915         4.70495
     2020.39972       308.92191         4.76847
     2020.40246       311.90867         4.71211
     2020.40520       314.04043         4.82484
     2020.40794       314.48719         4.68169
     2020.41067       314.54294         4.79621
     2020.41341       315.75870         4.75863
     2020.41615       307.49746         4.74879
     2020.41889       310.29022         4.75147
     2020.42162       308.64397         4.73269
     2020.42436       306.47773         5.01629
     2020.42710       312.56149         4.96798
     2020.42984       318.33325         4.90446
     2020.43258       315.65001         4.82663
     2020.43531       309.08476         4.87404
     2020.43805       311.86352         4.84094
     2020.44079       313.05428         4.80963
     2020.44353       312.27404         4.87225
     2020.44626       309.90379         4.76221
     2020.44900       315.10655         4.75684
     2020.45174       315.17031         4.78010
     2020.45448       320.37907         4.73269
     2020.45722       314.77783         4.72195
     2020.45995       314.85758         4.69332
     2020.46269       310.37334         4.73269
     2020.46543       314.70410         4.74611
     2020.46817       313.60686         4.75326
     2020.47091       310.07361         4.77652
     2020.47364       312.68937         4.71032
     2020.47638       318.25813         4.74790
     2020.47912       317.32289         4.81052
     2020.48186       315.58365         4.80605
     2020.48459       315.67840         4.93398
     2020.48733       311.90116         4.94651
     2020.49007       317.07092         4.82841
     2020.49281       316.94868         4.83468
     2020.49555       315.66244         4.87046
     2020.49828       314.61619         4.74074
     2020.50102       311.49395         4.72016
     2020.50376       315.33971         4.79979
     2020.50650       311.22547         4.70943
     2020.50924       309.53922         4.73179
     2020.51197       314.83198         4.74611
     2020.51471       311.63874         4.77295
     2020.51745       310.06150         4.71569
     2020.52019       322.90826         4.83378
     2020.52292       320.38001         4.84541
     2020.52566       312.16877         4.84362
     2020.52840       313.61053         4.89104
     2020.53114       318.95629         4.81231
     2020.53388       311.38804         4.82215
     2020.53661       317.16980         4.86778
     2020.53935       319.36856         4.92325
     2020.54209       318.66332         4.83468
     2020.54483       310.26508         4.80426
     2020.54757       317.17983         4.76311
     2020.55030       316.30259         4.83736
     2020.55304       323.51035         4.94382
     2020.55578       322.66111         4.92504
     2020.55852       318.37386         4.82215
     2020.56125       322.42262         4.83647
     2020.56399       317.81138         4.76847
     2020.56673       319.54214         4.82841
     2020.56947       322.46890         4.90267
     2020.57221       326.97865         5.07534
     2020.57494       323.16441         4.89015
     2020.57768       317.82417         4.81231
     2020.58042       319.55593         4.93577
     2020.58316       317.35069         4.99661
     2020.58590       316.43344         4.89909
     2020.58863       318.21820         4.88657
     2020.59137       317.47696         4.81678
     2020.59411       325.59072         4.82305
     2020.59685       326.43047         5.15049
     2020.59958       312.12123         4.99482
     2020.60232       320.45099         4.86778
     2020.60506       317.19875         4.90714
     2020.60780       325.08151         4.87225
     2020.61054       319.35726         4.97424
     2020.61327       322.30602         4.91698
     2020.61601       319.50878         4.85168
     2020.61875       315.58754         4.87941
     2020.62149       318.45329         4.84989
     2020.62423       324.25905         4.97066
     2020.62696       322.30881         4.99213
     2020.62970       315.08357         4.94203
     2020.63244       317.87333         4.92325
     2020.63518       324.00208         4.94919
     2020.63791       331.94584         5.10397
     2020.64065       317.95760         4.95277
     2020.64339       315.97036         4.88209
     2020.64613       319.01411         4.90535
     2020.64887       315.80387         4.86778
     2020.65160       323.10163         4.81410
     2020.65434       316.77339         4.81947
     2020.65708       317.16615         4.89820
     2020.65982       319.33090         4.93130
     2020.66256       315.45966         4.90535
     2020.66529       324.95342         4.88836
     2020.66803       323.33918         4.84810
     2020.67077       325.15094         5.00198
     2020.67351       326.13769         4.89909
     2020.67624       321.56045         4.90267
     2020.67898       315.71421         4.86420
     2020.68172       316.26197         4.84452
     2020.68446       320.39472         4.89193
     2020.68720       320.23748         4.94114
     2020.68993       319.94824         4.85615
     2020.69267       323.30800         4.94382
     2020.69541       323.54576         5.07802
     2020.69815       317.18151         4.94203
     2020.70089       321.68327         4.81142
     2020.70362       318.50003         4.99482
     2020.70636       323.62279         5.40725
     2020.70910       313.59054         5.26232
     2020.71184       324.38030         4.98587
     2020.71457       317.44806         5.03508
     2020.71731       322.78082         4.99124
     2020.72005       319.81558         5.05565
     2020.72279       317.31133         4.91609
     2020.72553       319.63409         4.95903
     2020.72826       322.45185         5.16928
     2020.73100       332.21661         5.00019
     2020.73374       329.62136         4.99124
     2020.73648       318.48412         4.86867
     2020.73921       314.54788         4.88030
     2020.74195       320.36664         4.89015
     2020.74469       318.19040         4.81947
     2020.74743       315.99215         4.85436
     2020.75017       318.80691         4.86062
     2020.75290       314.28567         4.87404
     2020.75564       315.71343         4.85257
     2020.75838       323.90819         4.81410
     2020.76112       322.18194         4.86957
     2020.76386       318.88770         4.77563
     2020.76659       320.61246         4.76668
     2020.76933       324.53122         4.96082
     2020.77207       320.97897         4.83736
     2020.77481       323.84673         4.93756
     2020.77754       324.29549         4.84004
     2020.78028       317.46625         5.11381
     2020.78302       321.30801         4.89283
     2020.78576       316.66476         4.88388
     2020.78850       314.40352         4.84094
     2020.79123       320.79728         4.89999
     2020.79397       323.01904         4.87046
     2020.79671       319.92379         4.84899
     2020.79945       319.35255         4.88030
     2020.80219       321.46031         4.95009
     2020.80492       330.16807         4.88567
     2020.80766       312.90583         4.86509
     2020.81040       317.85958         4.90893
     2020.81314       321.36234         4.84452
     2020.81587       316.33810         4.84183
     2020.81861       317.95786         4.80515
     2020.82135       319.08861         4.80605
     2020.82409       318.29737         4.88030
     2020.82683       320.86113         4.91430
     2020.82956       315.50189         5.06281
     2020.83230       320.03365         4.93577
     2020.83504       317.87540         4.88030
     2020.83778       318.71416         4.77116
     2020.84052       331.26792         4.90267
     2020.84325       327.49168         5.13349
     2020.84599       321.42344         5.03687
     2020.84873       325.54619         4.74253
     2020.85147       312.47195         4.71837
     2020.85420       326.21071         4.73716
     2020.85694       326.59747         4.86062
     2020.85968       325.78322         4.85883
     2020.86242       327.09098         4.82394
     2020.86516       324.98574         4.92951
     2020.86789       335.60550         4.95903
     2020.87063       334.92926         4.86957
     2020.87337       337.64501         4.92861
     2020.87611       327.18677         4.99482
     2020.87885       330.86553         5.01629
     2020.88158       327.39229         4.96082
     2020.88432       328.82404         4.86062
     2020.88706       320.36780         5.05744
     2020.88980       317.91056         4.93219
     2020.89253       320.73432         4.85168
     2020.89527       329.19908         5.08607
     2020.89801       325.61283         4.97245
     2020.90075       327.53159         4.84899
     2020.90349       320.40835         4.84273
     2020.90622       323.02111         4.84273
     2020.90896       317.21486         5.10576
     2020.91170       317.58162         5.01540
     2020.91444       316.61338         4.97066
     2020.91718       312.26114         4.86062
     2020.91991       310.50790         4.86420
     2020.92265       315.16565         4.90356
     2020.92539       312.09941         4.83289
     2020.92813       307.59617         4.84094
     2020.93086       316.67593         4.88120
     2020.93360       310.38469         4.85794
     2020.93634       318.81944         4.90535
     2020.93908       313.23020         4.83020
     2020.94182       312.62596         4.81499
     2020.94455       315.70372         4.83647
     2020.94729       308.44747         4.82394
     2020.95003       314.07723         4.92504
