# ================= DQRFIT RESULTS ================
# INPUT FILE: series/CME1.rad
# OUTPUT: LDETRENDED
# FILTER FUNCTION: f(t)
# f(t)=+line(t)+annual(t)+jumps(t)
# line(t)=+P 1+P 2*t
# annual(t)=+P 3*sin(2*pi*t+P 4)
# jumps(t)=+P 5*heav(t-2005.4524  )
# heav(t)=(t<0?0:1)
# TOTAL OBSERVATIONS MTOT= 4057
# INITIAL TIME INTERVAL= 2007.7122 - 1996.2718 = 11.4404
# TOTAL OBSERVATIONS AFTER PREFILTER M= 4042
# TIME-SPAN= 2007.7122 - 1996.2718 = 11.4404
# OBSERVATIONS: USED M=  4042 REJECTED MTOT-M=    15 %USED=   99.6303
# N=  5 PARAMETERS
# MAXSIG= 175.00000
# MAXRES=  50.83208
# SCALE FACTOR FOR LENGTHS: SCL=  10.00000
# SCALE FACTOR FOR SIGMAS: SCLSIG=   1.00000
# CHI^2=   6754.187 DOF=  4037 CHI^2/DOF=   1.67307
# RMS=      8.849 SDEV=      8.850 MEAN=    0.11775
#  P #       PARAMETER +-    SIGMA %error PARAMETER NAME
# P 1 =      4880.58174 +-  109.496   2.24 YZERO                              
# P 2 =        -2.42356 +-    0.055   2.26 SLOPE                              
# P 3 =         4.10125 +-    0.186   4.54 ANNUAL AMPLITUDE                   
# P 4 =        -3.12616 +-    0.064   2.05 ANNUAL PHASE                       
# P 5 =        -4.57908 +-    0.437   9.53 OFFSET 2005.4524                   
#       T            LDETRENDED       SIG_OBS
     1996.27180       -18.53806        11.73568
     1996.27379       -12.57723         8.18768
     1996.27653        11.10340         8.27305
     1996.27927         0.72704         8.88098
     1996.28200         0.20167         8.19156
     1996.28474         2.13131         8.24071
     1996.28748         5.93195         8.24847
     1996.29022         0.23758         8.82148
     1996.29295        -3.86278         8.26141
     1996.29569         6.88185         8.28857
     1996.29843        15.69649         8.63005
     1996.30117       -10.74088         8.43085
     1996.30391       -14.60624         8.80725
     1996.30664       -18.31361         8.58348
     1996.30938        -4.85497         8.55503
     1996.31212       -17.90734         8.20062
     1996.31486       -18.40870         8.31056
     1996.31760         9.31493         8.77492
     1996.32033         3.38557         8.27305
     1996.32307         4.69121         8.00918
     1996.32581       -11.70716         8.89392
     1996.32855         3.91648         8.08291
     1996.33128       -10.32389         8.36747
     1996.33402         5.92375         8.83442
     1996.33676       -17.67663         8.32867
     1996.33950        -0.37698         8.08162
     1996.34224       -15.31635         8.00401
     1996.34497         6.56429         8.45543
     1996.34771       -20.73408         8.66756
     1996.35045       -14.02744         8.04799
     1996.35319        -9.62281         8.04022
     1996.35593       -11.87517         8.66885
     1996.35871         2.86958         8.93919
     1996.36097        -9.07494        10.42021
     1996.36439        10.02933         9.86919
     1996.36627       -18.07010        11.38514
     1996.36961        14.13401        12.90368
     1996.37235        19.63864        14.14024
     1996.37509         8.40328        10.59613
     1996.37665         1.76006        21.47164
     1996.38604         4.85082         8.90297
     1996.38877        -6.50556         8.46448
     1996.39147         6.37296         8.72577
     1996.39426        13.53475         8.80596
     1996.39573       -32.52469        29.76021
     1996.40586         2.06086        12.43803
     1996.40794        -3.88110         9.05172
     1996.41068       -12.15846         8.26270
     1996.41342        -5.44183         8.36230
     1996.41616        -5.36519        10.81084
     1996.41890        -9.64056         8.27176
     1996.42163        -7.35393         8.85123
     1996.42437        -6.39529         8.68179
     1996.42711        -2.47865         8.78526
     1996.42984       -10.26503         8.32738
     1996.43258        -9.93739         9.00386
     1996.43536        -2.06565         8.69213
     1996.43806        -9.38511         8.61711
     1996.44080         8.00553         8.70895
     1996.44353        -0.63085         8.70507
     1996.44500       -16.40129        33.06374
     1996.44901         4.60142         8.34160
     1996.45175       -13.46594         8.31961
     1996.45449       -21.08330         8.34678
     1996.45723        -9.49266         8.44767
     1996.45996       -16.03303         8.45284
     1996.46270         7.20161        11.60115
     1996.46544        15.24824         9.01550
     1996.46817         0.86287         8.39852
     1996.47091        15.85650         8.63522
     1996.47365        13.17815         8.33514
     1996.47639        -4.85222         8.46319
     1996.47913        -0.85458         8.26400
     1996.48460         6.24969         8.39205
     1996.48734         7.81633         8.39722
     1996.49008        -0.01705         8.41404
     1996.49282         1.98260         8.45414
     1996.49556        19.07523         8.57702
     1996.49829         7.36487         8.90944
     1996.50103         7.72149         9.08406
     1996.50377        11.60614         8.77621
     1996.50651         3.92077         8.39205
     1996.50924         7.29941         8.43732
     1996.51198         8.25304         8.28986
     1996.51472        -5.59332         8.34031
     1996.51746         5.29632         8.71671
     1996.52020         2.61395         8.68049
     1996.52293         6.29859         8.68567
     1996.52567        14.31822         8.45543
     1996.52841         3.43585         8.64816
     1996.53115        23.63750         8.38041
     1996.53389        27.06013         8.49682
     1996.53662        17.39776         9.00516
     1996.53932        12.02731         9.03232
     1996.54210        10.06603         8.98187
     1996.54476         6.81148         8.62358
     1996.54792        11.93613         9.54065
     1996.55031        23.82994         8.37394
     1996.55305        -6.58243         8.29245
     1996.55579        10.43621         8.53433
     1996.55853        12.74285         8.90814
     1996.56126        19.31148         8.68308
     1996.56400         9.83512         8.53433
     1996.56674        11.29075         8.49941
     1996.56948        17.90639         9.00127
     1996.57222        11.25802         8.51622
     1996.57495        10.58066         8.34031
     1996.57769        19.41729         8.53045
     1996.58043        23.40593         8.55632
     1996.58317        13.81756         8.45543
     1996.58590         8.36320         8.61582
     1996.58864        23.77583         8.79044
     1996.59138        19.49147         8.74129
     1996.59412        16.07610         8.67015
     1996.59686        20.02874         8.94566
     1996.59959        14.94438         8.68825
     1996.60233         8.94801         8.59642
     1996.60507        22.59565         8.70636
     1996.60781        16.77628         8.32996
     1996.61055        18.68192         8.44896
     1996.61328        24.27555         8.50846
     1996.61602         9.15519         8.44249
     1996.61876         3.32582         8.87451
     1996.62150        14.53446         8.29375
     1996.62423        21.26209         8.30668
     1996.62697        16.05073         8.43991
     1996.62971         9.06336         8.70507
     1996.63245         4.92100         9.20564
     1996.63519         7.10664        10.55732
     1996.63792        -3.89673         8.97670
     1996.64066         0.78491         8.50587
     1996.64340        12.68354         8.56925
     1996.64614         9.19018         9.08664
     1996.64888        13.80582         9.32982
     1996.65161        19.37345         8.69731
     1996.65415        16.58059         9.23798
     1996.65686        28.21617         9.32206
     1996.65983        26.89635         9.44235
     1996.66256        19.27499         9.55876
     1996.66530         2.48462         8.48777
     1996.66804        10.45426         8.51622
     1996.67078        11.40789         8.61970
     1996.67352        15.46153         9.23281
     1996.67625         5.85017         8.98317
     1996.67899        13.62180         8.73611
     1996.68173        -4.49356         9.10734
     1996.68447        11.80507         8.60935
     1996.68721         7.29971         8.59771
     1996.68994         5.79434         9.04913
     1996.69268         3.75998         9.03491
     1996.69542        -0.34139         9.45270
     1996.69816        11.01225         8.67791
     1996.70089         5.14288         8.76974
     1996.70363        20.74152         8.64945
     1996.70637        20.74115         9.17719
     1996.70911        17.82379         9.12674
     1996.71185         7.48343         8.68955
     1996.71458        19.67806         8.65592
     1996.71732         7.31670         8.88486
     1996.72006        17.68433         8.72188
     1996.72280        23.31197         9.09958
     1996.72554        10.07760         8.37911
     1996.72827        12.59324         9.26126
     1996.73101        11.92387         9.07759
     1996.73375         7.84651         8.38170
     1996.73649        13.65914         8.88357
     1996.73922        -5.13822         8.88486
     1996.74196         9.70841         8.40757
     1996.74351       -15.42483        25.64309
     1996.74744       -11.21132         8.48647
     1996.75018        -8.72068         8.58607
     1996.75291       -20.13304         8.13206
     1996.75839        14.26123         8.73999
     1996.76113        -7.40714         8.56667
     1996.76724         6.51066        11.90771
     1996.76934         0.32777         8.54727
     1996.77208        -6.62860         8.53304
     1996.77482       -16.23196         8.85511
     1996.77713        -8.07135        10.08520
     1996.79218         0.25813        17.40497
     1996.79398        -8.84551         8.17475
     1996.79672        -8.26588         9.04655
     1996.79946       -10.92124        10.78885
     1996.80220        -7.15361         8.26270
     1996.80493        -4.62297         8.22778
     1996.80767        15.75566         8.54209
     1996.81041        -3.70170         8.63393
     1996.81315         4.22793         8.71283
     1996.81588        -5.07243         8.40757
     1996.81740       -27.11977        29.11218
     1996.82136        -6.88117         8.48906
     1996.82409       -15.58954         8.33772
     1996.82553       -15.18805        53.43981
     1996.82957        -7.22125         8.70119
     1996.83231        -5.49862         8.26270
     1996.83458         1.47888         9.83944
     1996.83733        -4.59245         9.79805
     1996.84052         1.92229         8.45284
     1996.84326        -4.04208         8.42180
     1996.84600        -2.38644         8.34160
     1996.84874         3.53719         9.70751
     1996.85148        -6.21517         8.41921
     1996.85343         3.82955        13.33829
     1996.85695         0.73910         8.98963
     1996.85969         7.14673         8.65592
     1996.86243         4.97137         9.08664
     1996.86517       -14.25400         9.02068
     1996.86791       -18.76635         8.70766
     1996.87064        -8.20572         8.54856
     1996.87338        -0.39209         9.22763
     1996.87885        -7.14582         8.74258
     1996.88159        -0.69818         8.97799
     1996.88433       -17.27255         9.40484
     1996.88707       -12.14691         8.54080
     1996.88981        -1.27728         8.94824
     1996.89254       -11.64464         8.79303
     1996.89528       -10.91301         8.54856
     1996.89802        -6.53337         8.85511
     1996.90076       -10.63274         8.75293
     1996.90350         4.74690         8.87063
     1996.90623        -1.04346         8.90038
     1996.90897       -15.74983         9.19012
     1996.91171        -8.47219         9.07242
     1996.91445        -4.47456         9.77995
     1996.91718        -1.85292         9.69716
     1996.91992       -13.66029         8.98834
     1996.92196         1.75465        14.98358
     1996.92540       -22.20002         9.39449
     1996.92814         0.81462         9.45140
     1996.93087        11.20525         9.49279
     1996.93361         8.55789         8.98963
     1996.93626         0.80932         9.34534
     1996.93912         4.70923         9.57170
     1996.94183         2.95379         9.92740
     1996.94437        -6.45004        10.11237
     1996.94746        -5.14555         9.70492
     1996.95004       -12.74030         8.86417
     1996.95278       -13.65466         8.60677
     1996.95551       -21.32103         8.61065
     1996.95825        -9.70539         8.18251
     1996.96099        -4.45876         9.01938
     1996.96373        -9.74712         8.22131
     1996.96647        -3.05549         8.64816
     1996.96920        -5.04685         9.10734
     1996.97194       -32.12322         8.54209
     1996.97468        -4.42858         8.55503
     1996.97742       -15.36495         8.49294
     1996.98016         9.28169         8.76457
     1996.98289        -0.30168         8.58995
     1996.98563       -22.64504         8.58219
     1996.98837       -11.55540         8.97152
     1996.99111       -19.15677         8.86287
     1996.99295       -21.81530        16.31457
     1996.99673       -14.16714         9.98819
     1996.99912       -16.10036         9.86919
     1997.01383       -30.02470        13.47281
     1997.01575        -4.42305         9.20176
     1997.01796        -6.20568        11.00357
     1997.02208       -20.06570        13.59957
     1997.02396       -16.31216         9.34534
     1997.02669       -12.34652         8.43861
     1997.02943       -11.65389         8.84218
     1997.03217       -10.87525         9.27937
     1997.03491        -6.63661         8.75681
     1997.03765        -3.88698         9.61438
     1997.04002         5.39378        11.59210
     1997.04343       -25.78495        11.04884
     1997.04586        -5.53007         9.70492
     1997.04860       -10.77944         8.91720
     1997.05133       -26.84680         8.64428
     1997.05407       -19.05517         8.62099
     1997.05784       -30.36403        17.80853
     1997.05955       -26.22490         9.29489
     1997.06229       -16.78926         8.73353
     1997.06502       -27.79463         8.82795
     1997.06776       -28.15499         8.96894
     1997.07050       -10.07036         9.14744
     1997.07324       -23.97272         9.23022
     1997.07598       -23.79908         8.94954
     1997.07871       -26.33145         9.66483
     1997.08109       -21.85269        10.11495
     1997.08435       -40.82180         9.67129
     1997.08693       -14.04054         8.54468
     1997.08966       -17.90091         8.40628
     1997.09240       -24.06427         8.62099
     1997.09514       -19.67664         9.63766
     1997.09788        -8.08900         8.67791
     1997.10062         5.26263         8.51622
     1997.10335       -26.17773         8.52398
     1997.10609        -9.68810         8.27434
     1997.10883        -3.96146         8.57443
     1997.11157        -9.31183         9.46304
     1997.11431        -4.73019         8.50717
     1997.11704       -18.01655         8.51364
     1997.11978        -9.95292         8.30797
     1997.12252       -15.84228         8.70507
     1997.12526        -6.74065         9.04525
     1997.12799       -18.48301         8.64169
     1997.13073       -13.38338         8.46190
     1997.13347       -16.93374         8.70636
     1997.13621        -6.89711         9.18883
     1997.13895         2.94853         8.34548
     1997.14168        11.70516         8.55373
     1997.14442       -19.31720         8.34936
     1997.14716       -15.25857         8.72835
     1997.14990        -5.71493         8.48777
     1997.15264       -10.40429         8.58736
     1997.15538        -1.51664         8.67144
     1997.15811       -15.20602         8.68049
     1997.16085        15.81461         8.74258
     1997.16359        -2.83675         8.91203
     1997.16632        -5.98512         9.65318
     1997.16906       -10.04848         8.49294
     1997.17180        -5.29685         8.55244
     1997.17454         0.64979         8.59124
     1997.17728       -10.39758         8.46836
     1997.18001        -8.50094         8.48647
     1997.18275        -8.64431         8.86158
     1997.18549       -13.74467         8.69472
     1997.18823        -7.87604         8.47224
     1997.19097       -12.74740         8.48647
     1997.19370       -20.20476         8.51364
     1997.19644       -10.50313         8.40757
     1997.19918        -7.16649         8.40369
     1997.20192         5.10114         8.64040
     1997.20465        -4.14922         8.94178
     1997.20739       -10.92759         8.61841
     1997.21013         0.58105         9.00386
     1997.21287        -5.16932         8.88745
     1997.21561        -3.56368         8.52916
     1997.21834        -4.37705        10.32450
     1997.22108        -2.92741         8.87322
     1997.22382       -14.01678         8.82666
     1997.22656        -4.51614         8.35195
     1997.22930        -6.98050         8.46966
     1997.23203         4.69713         8.70507
     1997.23477        -9.43723         8.52786
     1997.23751        -5.52260         8.74258
     1997.24025       -11.64596         8.42697
     1997.24298         6.79867         9.01292
     1997.24572        -5.11469         8.76328
     1997.24846         2.06094         8.38946
     1997.25120        -5.32042         8.53433
     1997.25394       -10.40979         8.56279
     1997.25667         0.58885         8.48777
     1997.25941        -0.13552         8.59900
     1997.26215        -1.48788         8.56925
     1997.26454       -17.66807        10.02700
     1997.26892       -27.04248        62.06857
     1997.27036       -12.18197         8.41921
     1997.27311        -6.86032         8.63652
     1997.27584        -0.85370         8.29892
     1997.27858        -8.25707         8.46190
     1997.28131        -2.07743         8.44638
     1997.28405        -9.01580         8.25106
     1997.28679        -0.54516         8.35583
     1997.28953        -4.61353         8.64557
     1997.29227        -4.68189         8.52786
     1997.29500        -0.59926         8.86029
     1997.29774       -16.33562         8.89521
     1997.30048         0.74301         8.77362
     1997.30322       -11.96435         8.74646
     1997.30595         8.41828         8.72835
     1997.30869       -14.79708         8.74646
     1997.31143        -0.41344         8.49294
     1997.31417         6.12519         8.39722
     1997.31691        -0.23717         8.65721
     1997.31964        -2.10954         8.89262
     1997.32238         2.79210         8.38170
     1997.32512        -5.43027         8.25753
     1997.32786       -15.03363         8.36489
     1997.33060        -4.48100         8.26400
     1997.33333       -10.10636         8.41533
     1997.33607        -7.70273         8.38558
     1997.33881         3.68991         8.20967
     1997.34155         0.47054         8.47224
     1997.34428        -0.70482         8.48647
     1997.34702       -13.32318         8.53045
     1997.34976        -3.09955         8.40886
     1997.35250        -4.68291         8.27434
     1997.35524        -7.10628         8.57314
     1997.35797        -6.69764         8.52916
     1997.36071        -0.17201         8.48906
     1997.36345         7.18163         8.37394
     1997.36619         4.15926         8.55244
     1997.36893        17.70490         8.57184
     1997.37166         4.14753         8.51622
     1997.37440         3.63217         8.80725
     1997.37714         7.68980         8.20708
     1997.37988         5.34844         8.66368
     1997.38261         5.02107         8.59771
     1997.38535         0.28871         8.45284
     1997.38809        -2.37065         8.57184
     1997.39083         1.17398         8.68825
     1997.39357         0.34262         8.26270
     1997.39630         3.35325         8.36877
     1997.39904         4.39589         9.06077
     1997.40178         4.09052        11.96591
     1997.40452        -9.60684         8.66109
     1997.40726         2.54979         8.65721
     1997.41000         1.64244         8.90426
     1997.41273         3.19106         8.67144
     1997.41547        -1.24330         8.38817
     1997.41821         1.36933         8.81890
     1997.42085        -8.35926         8.62358
     1997.42408        -6.91143         9.83298
     1997.42642        -9.35576         8.41533
     1997.42916         1.68188         8.38429
     1997.43190         5.29651         8.42051
     1997.43463         3.06315         8.25882
     1997.43737         2.64878         8.68049
     1997.44009        -5.83963         9.00645
     1997.44285         1.53305         8.70507
     1997.44559       -10.26431         8.42051
     1997.44832        10.56532         8.70378
     1997.45106         4.70396         8.47612
     1997.45380        -4.64141         8.31961
     1997.45654        -2.00477         8.43861
     1997.45927        18.86086         9.01938
     1997.46201        -8.17850         8.37782
     1997.46475        -1.03786         8.37006
     1997.46749        -0.30323         8.41792
     1997.47023         0.34941         8.25753
     1997.47296        -0.88696         8.62229
     1997.47571        -0.12031         8.24977
     1997.47844        -9.90769         8.59900
     1997.48118        -6.94905         8.53045
     1997.48392       -14.94542         8.21614
     1997.48665         3.57322         8.50458
     1997.48939        10.04785         8.65074
     1997.49213         2.77049         8.23942
     1997.49487         2.15212         8.19544
     1997.49760         2.47176         8.43344
     1997.50034         1.57539         8.36877
     1997.50308        -2.29497         8.17863
     1997.50582         2.64167         8.39076
     1997.50856        -4.14570         8.65721
     1997.51129       -15.84806         8.16052
     1997.51403         1.62957         8.36230
     1997.51677        -0.95979         8.61453
     1997.51915       -18.55603        10.29475
     1997.52228        -3.50444         8.53304
     1997.52498         4.78811         8.51493
     1997.52772         2.27275         8.42568
     1997.53046        21.06040         8.20967
     1997.53320        -0.24898         9.00516
     1997.53593        -0.89935         8.68696
     1997.53867        23.51929         8.86934
     1997.54141        -1.04207         8.92755
     1997.54415        16.55856         8.55244
     1997.54689        -3.58380         8.64816
     1997.54962         1.16483         8.81890
     1997.55236         5.66447         8.33384
     1997.55479        12.32534         9.64542
     1997.55798        -8.22392         9.64542
     1997.56050         8.44020         9.02714
     1997.56331         6.79801         9.92352
     1997.56605         1.20164         9.03491
     1997.56879       -17.59472         8.63264
     1997.57152        -8.45011         9.16425
     1997.57426        12.45755         9.67517
     1997.57700        -0.20782         8.56408
     1997.57974        12.57282         8.82924
     1997.58248         2.67746         8.60806
     1997.58522        -7.99991         8.18768
     1997.58795        -8.26227         8.38170
     1997.59069        17.65536         8.77880
     1997.59343        -5.14300         8.42697
     1997.59617        14.36563         8.38170
     1997.59876        -5.24608         9.79935
     1997.60208         1.61495        10.44738
     1997.60439         3.25355         8.81243
     1997.60695         3.82377         9.23410
     1997.60985        12.26479         8.62229
     1997.61259        -1.81356         9.28584
     1997.61533        -4.53592         8.51622
     1997.61807         0.25871         8.55891
     1997.62081        25.55335         8.64557
     1997.62355         2.83399         8.59383
     1997.62628       -10.72938         8.36618
     1997.62902        -0.19474         9.33370
     1997.63175        -7.39713         8.18509
     1997.63450        -1.50047         9.03879
     1997.63723         6.48316         8.14500
     1997.63997        -2.30620         8.05704
     1997.64271        25.40543         8.14500
     1997.64545         2.94807         8.16052
     1997.64819        -9.02130        20.38125
     1997.65092         3.36334         9.42036
     1997.65366         4.51797         8.81243
     1997.65640        17.65061         8.26658
     1997.65914        -0.37775         8.41274
     1997.66188         5.55488         8.18121
     1997.66461        16.44452         8.13077
     1997.66735        10.75515         8.20708
     1997.67009         8.63979         8.02600
     1997.67283        -8.78358         8.23942
     1997.67556        -2.83994         8.31056
     1997.67830         6.12769         8.96506
     1997.68104         4.63433         8.28469
     1997.68378         9.13496         7.96650
     1997.68652        12.65360         8.15793
     1997.68925        11.44723         8.71024
     1997.69199         7.29887         8.22002
     1997.69473         2.92650         8.74387
     1997.69747         8.82714         8.65721
     1997.70021         8.68378         8.49682
     1997.70293        -3.61361         8.33643
     1997.70568         8.62005         8.13206
     1997.70842         3.36968         8.26788
     1997.71116         9.96032         8.52528
     1997.71389         2.47495         8.10102
     1997.71663         7.23759         8.06480
     1997.71937        18.01522         8.13335
     1997.72211        -0.06714         7.94839
     1997.72485        -2.05051         8.15405
     1997.72758         7.59513         8.58090
     1997.73032         8.67376         8.29116
     1997.73306         6.25041         8.95471
     1997.73580         8.02904         8.62617
     1997.73854        31.02067         8.40886
     1997.74127        24.14331         8.43344
     1997.74401        20.23794         8.75034
     1997.74675        -1.34442         8.39334
     1997.74949         1.97221         8.34548
     1997.75222         4.45685         8.30797
     1997.75496         1.93548         8.31056
     1997.75770         4.63112         8.66627
     1997.76044        17.75675         8.67791
     1997.76318        18.37640         8.83700
     1997.76592        11.17504         8.48001
     1997.76866        -0.30533         9.23539
     1997.77139         4.50631         8.62746
     1997.77413        -8.06706         8.58866
     1997.77687        -3.16342         8.89133
     1997.77961        -0.10079         8.38946
     1997.78235        -8.47815         8.37911
     1997.78508        -7.01652         8.33126
     1997.78782         7.01212         8.48777
     1997.79056        -0.73425         8.60159
     1997.79330        -4.04361         8.19027
     1997.79603        -9.50598         8.62229
     1997.79877         0.93766         8.94695
     1997.80151         2.05129         8.38946
     1997.80425        17.44793         8.61323
     1997.80699        -7.69343         8.46966
     1997.80972         2.00220        10.85353
     1997.81246        16.05884         8.49941
     1997.81520         7.84647         8.93401
     1997.81794         4.94212         8.54468
     1997.82068         5.83674         8.53692
     1997.82341         8.00438         8.65592
     1997.82615         0.66301         9.00645
     1997.82889        -5.83135         9.01162
     1997.83163         7.76328         9.17589
     1997.83436         3.63292         8.38817
     1997.83710         8.53555         8.78138
     1997.83984        11.02819         9.18495
     1997.84258         1.71383         8.82407
     1997.84532        -0.97754         8.60547
     1997.84805        -1.46290         9.01162
     1997.85079        -5.92227         8.78397
     1997.85352        10.96636         9.18107
     1997.85627         2.75800        10.15376
     1997.85901         7.33166         8.98705
     1997.86174         6.59127         9.32335
     1997.86448        12.67891         8.81243
     1997.86722         4.09254         8.84864
     1997.86994        10.44814         9.47857
     1997.87268         2.45677         8.77492
     1997.87541        11.32140         9.16037
     1997.87817         0.59408         9.23022
     1997.88087        -5.83636         8.96635
     1997.88365        -4.72364        11.49121
     1997.88638       -10.17301         8.98575
     1997.88912        -3.50137         9.04137
     1997.89186        -8.30274         9.38414
     1997.89460        -9.52310         8.74775
     1997.89734        -0.06647         9.02973
     1997.90007         4.69317         8.63005
     1997.90281        -2.69920         8.80596
     1997.90555        11.25744         8.44896
     1997.90829         2.34107         9.48762
     1997.91099        -9.11937         8.79303
     1997.91376         2.68334         8.63781
     1997.91650        -4.60802         8.13853
     1997.91924         2.28762         8.28210
     1997.92200        -4.23269         9.47339
     1997.92464         5.86870         8.97541
     1997.92739         0.23236         8.84347
     1997.93019        -3.25284         8.58736
     1997.93293         4.10579         8.24459
     1997.93567       -15.32957         8.72059
     1997.93840        -2.19994         8.27046
     1997.94114        -4.21830         8.20320
     1997.94386        -6.27870         8.22778
     1997.94662        -1.99103         8.21743
     1997.94935        -5.78540         8.58478
     1997.95209        -1.35576        10.51205
     1997.95483       -14.16013         8.74387
     1997.95757       -26.36849         8.16310
     1997.96031         0.20815         8.05575
     1997.96304         5.38578         8.05057
     1997.96578        -0.27158         7.87983
     1997.96852        -6.54095         8.56279
     1997.97126       -10.09131         8.32738
     1997.97400         1.12432         8.13206
     1997.97673         0.84296         8.59254
     1997.97944        -4.08249         8.29375
     1997.98221        -0.30177         8.22260
     1997.98495        -2.28314         7.93416
     1997.98768        -8.02250         8.04669
     1997.99042        18.00913         8.47612
     1997.99316        -6.26223         8.47612
     1997.99590         5.44340         8.12559
     1997.99863        -7.87897         8.46836
     1998.00411         7.14931         8.27046
     1998.00685         5.10195         8.81501
     1998.00959        -6.64142         8.36230
     1998.01233       -18.31778         8.05833
     1998.01506       -10.89715         8.06221
     1998.01780       -14.47651         8.45931
     1998.02054         4.51612         9.09311
     1998.02328        -4.33924         8.13465
     1998.02601        -6.14961         8.10490
     1998.02875        -5.87697         8.37394
     1998.03149       -16.47434         9.62085
     1998.03423         1.05230         8.76328
     1998.03697        -2.89306         8.57314
     1998.03970        -3.83243         8.47742
     1998.04244        15.03521         8.71930
     1998.04518         0.95784         8.60289
     1998.04791        -4.95053         8.76586
     1998.05065        -3.88789         8.37653
     1998.05887         9.30002         8.24201
     1998.06161        15.72465         9.22893
     1998.06434         1.22729         8.45672
     1998.06708         2.68792         8.52398
     1998.06982        -7.42944         8.36359
     1998.07256        -8.57681         8.12430
     1998.07530         2.07183         8.47612
     1998.07803        -1.88253         8.86417
     1998.08077         4.38010         8.72835
     1998.08351        13.43874        10.72030
     1998.08625         3.46237        11.25321
     1998.08898         5.84201         8.95600
     1998.09172         3.16664         8.40628
     1998.09446         4.83828         8.53174
     1998.09719         1.27590         9.42553
     1998.09994        -1.55845         9.50444
     1998.10221        -7.91093        10.72677
     1998.11121         1.42286         9.75796
     1998.11363        -3.18527         8.35842
     1998.11636         9.37836         9.11898
     1998.11910         4.06800         8.15534
     1998.12184         1.39463         8.30927
     1998.12458        -1.99573         8.41404
     1998.12711        -5.41859         8.67403
     1998.13017        -1.99817         9.19400
     1998.13279       -16.37183         8.55761
     1998.13553       -11.71819         8.52786
     1998.13827        -5.46056         8.21872
     1998.14100        -5.44292         8.45026
     1998.14374       -11.15629         8.52269
     1998.14648        -0.41565         8.15664
     1998.14922       -16.49202         8.01694
     1998.15196        -1.96138         8.23813
     1998.15469        -0.71874         8.50070
     1998.15743       -20.39211         8.23037
     1998.16017        -3.46647         8.62746
     1998.16288        -8.13490         8.28598
     1998.16564        -9.72420         8.82148
     1998.16838        -4.99157         8.15017
     1998.17112         3.30907         8.06092
     1998.17386         2.40270         7.91864
     1998.17608         7.66009        10.66080
     1998.17933        -1.57703         8.19803
     1998.18077        21.88845        51.00679
     1998.18568         1.18335        13.45729
     1998.18827        13.72862        13.20247
     1998.19029         7.26151         8.30668
     1998.19302        -6.26685         8.28081
     1998.19578        -7.41216         8.27952
     1998.19850        -7.99658         8.21096
     1998.20124         0.13106         8.08162
     1998.20397        -6.51931         8.45026
     1998.20671        -0.72267         8.10619
     1998.20945         5.46496         7.90829
     1998.21219        -7.67740         8.30280
     1998.21493        -7.01777         8.54597
     1998.21766         5.18787         8.33126
     1998.22040       -12.14851         8.29375
     1998.22313         8.88112         8.97929
     1998.22587         0.04875         8.63005
     1998.22861        -9.48761         8.15793
     1998.23132       -11.44905         9.09052
     1998.23409       -10.70032         8.29763
     1998.23681         3.74127         8.74129
     1998.23953        15.15287         8.99739
     1998.24230        -5.11541         9.24186
     1998.24500        -6.87987         9.17331
     1998.24778        -0.68014         9.03491
     1998.25045         3.84432         8.28598
     1998.25326         0.53113         8.07515
     1998.25599        -1.43224         8.33643
     1998.25873        -0.22760         8.41921
     1998.26146        -0.81799         8.52010
     1998.26421        -7.19333         9.15649
     1998.26695         2.45530         8.27305
     1998.26968        -9.61806         8.18509
     1998.27242        -1.79142         8.45802
     1998.27516        -7.28079         8.56279
     1998.27790        -1.81215         8.30539
     1998.28063        15.25048         8.22260
     1998.28337         4.71112         8.58348
     1998.28611        -7.10825         8.35066
     1998.28885         2.17639         8.66756
     1998.29159        -2.53098         8.51105
     1998.29432        -4.95834         8.42956
     1998.29706        -5.36271         8.27434
     1998.29980         1.41393         8.48001
     1998.30254         5.05056         8.31703
     1998.30528        -1.04780         8.24459
     1998.30801         4.10983         8.08162
     1998.31075        -7.39153         8.55891
     1998.31349         4.67411         8.52398
     1998.31623         1.56274         7.98072
     1998.31896        -1.53462         8.35583
     1998.32170        -8.70899         8.72835
     1998.32444        -5.66835         8.24330
     1998.32718       -13.89872         8.23942
     1998.32992        -8.02108         9.02326
     1998.33265        22.95555         8.30021
     1998.33539        13.66619         7.98202
     1998.33813         7.43082         7.79576
     1998.34087         4.27946         8.09584
     1998.34361         7.00909         8.37265
     1998.34634         2.96173         8.33384
     1998.34908         9.64237         8.13724
     1998.35182         5.57600         7.98072
     1998.35456        -7.81236         8.07256
     1998.35729         0.02427         8.20579
     1998.36003         4.57291         8.07385
     1998.36277         4.25654         8.07127
     1998.36551        -0.93182         8.05316
     1998.36825        -5.29719         7.99754
     1998.37098         6.29045         7.95615
     1998.37372         6.76608         8.20062
     1998.37646         5.58272         8.41404
     1998.37920         0.67635         8.06739
     1998.38193        -4.28201         8.19932
     1998.38467        -1.54638         8.49941
     1998.38735        10.41211         8.49165
     1998.39015         1.22490         8.24718
     1998.39289        -5.52547         8.45155
     1998.39562        -6.87083         8.04411
     1998.39836        -0.31420         8.26658
     1998.40110        -5.63557         8.38558
     1998.40383        -5.09795         8.08032
     1998.40657        -2.17032         8.19932
     1998.40930        -5.53068         8.12559
     1998.41204         1.06696         7.99754
     1998.41478        -3.68641         8.02858
     1998.41752         1.95823         8.75681
     1998.42026        -0.98012         7.91346
     1998.42300        -0.71048         9.04396
     1998.42574         2.10516         8.13982
     1998.42848        -8.85521         8.20967
     1998.43122        -9.01257         8.00271
     1998.43395        -2.94794         8.09326
     1998.43669        -6.81830         8.29504
     1998.43943        -1.18668         8.41404
     1998.44217       -15.53703        13.48704
     1998.44471         0.93513         9.91317
     1998.45311         7.60549         9.96362
     1998.45587        -3.56683         9.36991
     1998.45859        -1.07822         8.16052
     1998.46094        -3.01953        12.17546
     1998.46423        -6.39756         8.93401
     1998.46681        -3.54331         7.71168
     1998.46955         4.01632         8.09972
     1998.47228        -7.88904         8.19673
     1998.47502        -1.49541         8.34548
     1998.47774         7.62418         8.34807
     1998.48055         8.79398         8.49941
     1998.48324        -3.85450         8.43991
     1998.48597         0.99913         8.50070
     1998.48870        -9.59325         8.45802
     1998.49145       -14.12560         7.81257
     1998.49419        -5.58196         7.81387
     1998.49692        -1.46533         8.79044
     1998.49966        -9.19169         8.04152
     1998.50240         0.95894         7.99754
     1998.50514        -2.26142         7.88371
     1998.50788        -9.36478         8.03117
     1998.51059       -11.78322         8.58478
     1998.51335        -1.69051         8.47095
     1998.51609        -1.81388         8.81760
     1998.51879        -4.70734         8.26012
     1998.52157       -10.12161         8.15405
     1998.52430        -3.48297         8.00789
     1998.52702        -3.50138         7.93028
     1998.52978        -5.25070         8.27952
     1998.53252         2.32293         8.17733
     1998.53525         4.22457         7.77894
     1998.53799        -0.48980         7.73626
     1998.54072        10.46882         8.76845
     1998.54347        -3.39552         8.02600
     1998.54621        -1.65389         7.97426
     1998.54894        -2.74725         8.08679
     1998.55162        -5.23577         8.12171
     1998.55442        -0.42298         8.54597
     1998.55716         4.45365         8.17604
     1998.55990         3.55229         8.25106
     1998.56261        -0.05512         8.05316
     1998.56537        -3.25444         8.49682
     1998.56811       -14.54481         8.55632
     1998.57085         1.11383         8.19544
     1998.57358         2.06946         8.20967
     1998.57631         9.46308         8.77621
     1998.57904         3.54369         8.75681
     1998.58180         0.84737         8.37394
     1998.58454         1.72701         8.16440
     1998.58727        -7.34236         7.87207
     1998.59001        -3.59972         8.13077
     1998.59275         0.71291         8.24847
     1998.59549       -17.79645        11.18078
     1998.59823        -1.22382         8.27046
     1998.60096        -0.95718         8.22390
     1998.60370         0.13945         8.16699
     1998.60644         6.42809         8.18639
     1998.60918         5.43472         8.04281
     1998.61191         2.19336         7.98461
     1998.61465        -7.70401         8.00659
     1998.61739        -2.62937         7.99495
     1998.62013         4.72827         8.02988
     1998.62268        -8.36755         9.09570
     1998.62591        -8.95273         9.20435
     1998.62834       -11.36283         7.94321
     1998.63108        -7.59119         8.08162
     1998.63382       -12.53256         8.01694
     1998.63656        -4.21792         8.01047
     1998.63929        -5.28229         7.95874
     1998.64203        -2.93465         7.86173
     1998.64477        -7.14702         8.04799
     1998.64751        -5.21838         7.71944
     1998.65024       -12.20575         8.08679
     1998.65298         0.28289         7.94968
     1998.65572        -4.11848         8.37653
     1998.65846       -11.43984         8.34807
     1998.66120         1.71180         7.85267
     1998.66393         0.01243         8.27564
     1998.66667         4.21307         8.78268
     1998.66941         0.09770         8.73094
     1998.67215        -3.72666         8.70248
     1998.67488        -0.00403         8.16828
     1998.67762        -1.47039         7.80481
     1998.68036         1.44924         8.44767
     1998.68310         9.23288         8.46707
     1998.68584        -3.17049         9.06077
     1998.68855        -3.66291        13.07701
     1998.69132         3.42781         8.23166
     1998.69405         2.11342         8.03764
     1998.69676         0.65000         8.27564
     1998.69953         7.50169         8.01306
     1998.70226         9.04933         8.81243
     1998.70500        -2.35004         8.09067
     1998.70774        16.98460         8.18380
     1998.71048        -5.84777         8.22390
     1998.71321        -0.54313         8.42051
     1998.71595        -2.52750         7.96132
     1998.71869        16.76714         8.35066
     1998.72143        -2.37023         8.14629
     1998.72417        -0.74059         8.24718
     1998.72690        -3.71396         8.61194
     1998.72964        -4.45932         8.47224
     1998.73238        -3.41669         8.90168
     1998.73512         5.00995         8.15922
     1998.73786         9.35459         7.88371
     1998.74059         7.83722         8.11266
     1998.74325        -0.96135         8.24330
     1998.74729       -43.16755        25.71682
     1998.74881         2.67613         8.16828
     1998.75154        -7.13424         8.14888
     1998.75428         6.52240         8.53433
     1998.75702        -0.34197         8.24071
     1998.75976         8.07867         8.34936
     1998.76250         8.61830         8.37006
     1998.76518        21.41880         8.46707
     1998.76797        12.03257         9.08664
     1998.77071        -0.55779         8.04799
     1998.77345        -2.78716         7.96520
     1998.77619         8.10748         8.00789
     1998.77892         1.25812         8.41533
     1998.78166        -0.72625         8.70378
     1998.78440        -0.25761         8.10360
     1998.78714         9.70902         8.14758
     1998.78987         7.16366         8.03117
     1998.79261        -9.07272         8.12430
     1998.79534        -2.85510         8.78656
     1998.79808         0.46754         8.19803
     1998.80082        -4.86581         8.10490
     1998.80355         7.17181         8.04281
     1998.80630         3.55747         8.09972
     1998.80904        -0.59790         8.08550
     1998.81178         8.16874         8.54209
     1998.81452         1.05237         8.19932
     1998.81725         2.85601         8.68955
     1998.81999         4.48265         8.29892
     1998.82272         1.36127         8.13465
     1998.82546        13.68989         8.33772
     1998.82820         1.82455         8.16440
     1998.83094         3.90919         8.66885
     1998.83368        -9.73718         8.07127
     1998.83642        -6.12454         8.29504
     1998.83916         0.93609         8.66368
     1998.84189         4.96273         8.18897
     1998.84463         1.90736         8.30668
     1998.84736        10.40599         8.37006
     1998.85010        11.31561         8.39205
     1998.85285         1.24727         8.11913
     1998.85558         4.65091         8.01824
     1998.85832         3.43154         8.56667
     1998.86106         3.81518         8.15405
     1998.86380         4.04281         8.24847
     1998.86653        -0.24955         8.09843
     1998.86927         4.10808         8.02988
     1998.87198         8.96064         8.35842
     1998.87475        15.59335         7.97814
     1998.87749         2.42299         8.36101
     1998.88022        -3.19538         7.94968
     1998.88296         2.84826         8.20450
     1998.88570         4.10989         8.21355
     1998.88844        30.42853         8.39852
     1998.89118        15.87416         7.89536
     1998.89315       -14.63805        12.86100
     1998.89679         1.83477         9.20176
     1998.89938         9.50705         8.39593
     1998.90212         7.97868         8.20450
     1998.90486        21.80534         8.18380
     1998.90760        11.17898         8.59642
     1998.91034         9.21961        10.98675
     1998.91308         8.30825         9.43847
     1998.91582         1.81788         8.55115
     1998.91855        17.73752         7.99366
     1998.92129        15.32015         8.00789
     1998.92403        15.35579         7.97943
     1998.92677         7.91442         8.69472
     1998.92951        13.46106        12.99940
     1998.93224        11.98470         9.02844
     1998.93498        11.18133         8.41145
     1998.93772        -1.38403         8.16699
     1998.94046         5.20860         8.24459
     1998.94319         8.95824         9.04137
     1998.94593         2.73787         8.30797
     1998.94861        -3.08764        14.56967
     1998.95141         6.18914         8.76716
     1998.95415         1.36878         8.69602
     1998.95688         7.27341         8.20450
     1998.95962         1.57605         8.10619
     1998.96236         8.51468         8.56408
     1998.96510         1.23632         8.20062
     1998.96784        12.39195         8.57702
     1998.97057        12.33259         8.59900
     1998.97348         8.73264        13.33182
     1998.97605        15.91386         9.50832
     1998.97879        14.50450         8.95859
     1998.98152        19.41813         9.24962
     1998.98426        10.70877         8.43473
     1998.98700        20.51440         8.38558
     1998.98974         4.60404         8.38946
     1998.99248        -6.07833         8.21872
     1998.99521        12.50331         8.94048
     1998.99795        30.23593         8.61582
     1999.00343        -3.18279         9.19918
     1999.00616        -2.03215         8.89392
     1999.00890        -5.28952         8.92496
     1999.01164        -4.75788         8.94436
     1999.01438        -5.86124         8.71412
     1999.01712        -3.25761         8.70248
     1999.01985        10.43401         8.53692
     1999.02258        -2.84436         8.68437
     1999.02532        -1.61173         8.88228
     1999.02806        -2.31308         9.51737
     1999.03081        -4.71043         8.89909
     1999.03354        -9.72180         8.70895
     1999.03628         5.07084         9.60145
     1999.03902        12.11347         9.06983
     1999.04176        -2.80189         9.34534
     1999.04449         6.87874         9.03232
     1999.04721         3.06833         8.92237
     1999.04997        -0.51698         8.39076
     1999.05271        -5.42635         8.68179
     1999.05545         0.10029         8.63522
     1999.05818         0.70292         9.63120
     1999.06092        -0.90844         8.56796
     1999.06364        -5.86585        12.10561
     1999.06640         3.26983         8.51234
     1999.06914        -0.70154         9.20306
     1999.07187        -5.09590         8.49294
     1999.07461       -10.07727         8.27434
     1999.07735        -0.01363         8.86158
     1999.08009        -1.03200         8.87322
     1999.08282        -5.62736         9.12545
     1999.08556        -0.13773         8.25494
     1999.08830        -0.93309         8.66885
     1999.09104        -6.34445         9.46046
     1999.09378       -10.88182         8.93531
     1999.09651       -14.08318         8.88357
     1999.09925         0.83145         8.78915
     1999.10199       -11.41591         9.74114
     1999.10473       -10.12828         8.29375
     1999.10747       -11.70064         9.18624
     1999.11020       -21.61001         9.79547
     1999.11294       -18.48837         9.24445
     1999.11568        -8.29674         8.93013
     1999.11842       -15.51910         9.14744
     1999.12115       -22.74647         8.62746
     1999.12389       -15.19683         8.87839
     1999.12663       -13.55219         9.20176
     1999.12937        -0.44356         9.46822
     1999.13211         0.50208         8.97152
     1999.13484        -5.59429         9.37121
     1999.13758        -8.58665         8.92108
     1999.14032       -23.32002         8.82795
     1999.14306       -28.34338        12.94637
     1999.14580       -14.06175         8.65980
     1999.14853       -23.18011         8.82407
     1999.15127       -17.79048         8.50458
     1999.15401       -17.99484         9.24962
     1999.15675       -17.37521         8.87969
     1999.15948       -10.42257         8.77880
     1999.16222       -22.46394         8.73353
     1999.16496       -25.95030         8.74387
     1999.16770       -28.86266         8.60547
     1999.17044       -20.12903         8.36618
     1999.17317        -9.55839         8.30409
     1999.17591       -19.04776         8.56796
     1999.17865       -12.22612         8.37653
     1999.18139       -16.57149         8.37911
     1999.18413       -18.24085         8.29892
     1999.18686       -19.98922         8.44249
     1999.18960       -14.24158         8.31315
     1999.19234        -7.42395         8.41663
     1999.19508        -7.99631         8.28081
     1999.19781       -12.05068         8.16828
     1999.20055       -15.09804         8.26141
     1999.20329       -17.78441         8.55761
     1999.20603       -14.23277         8.31444
     1999.20877       -18.94813        12.49882
     1999.21150       -10.92850         8.75551
     1999.21424       -12.82386         8.39593
     1999.21698       -11.01123         8.40498
     1999.21972       -22.22659         8.55373
     1999.22246       -21.80796         8.48777
     1999.22519        -5.82232         8.49682
     1999.22793        -5.18469         8.61065
     1999.23067       -13.82305         8.40628
     1999.23341       -17.89642         8.42439
     1999.23614       -27.42278         8.44767
     1999.23888       -27.50315         8.41016
     1999.24162       -24.86551         8.56279
     1999.24436       -20.17587         8.56408
     1999.24710        -9.39924         8.55503
     1999.24983       -10.96460         8.62746
     1999.25257       -17.35297         8.63652
     1999.25531       -13.84933         8.86805
     1999.25805       -13.79570         8.51752
     1999.26079       -14.35806         8.38170
     1999.26352       -18.38443         8.36230
     1999.26626       -20.37779         8.36877
     1999.26900       -18.13216         8.71283
     1999.27174       -21.01652         8.14241
     1999.27447       -21.93689         8.45543
     1999.27721       -25.24725         8.21872
     1999.27995       -17.64162         8.41016
     1999.28269       -14.29398         8.36101
     1999.28543       -14.88934         8.29763
     1999.28816       -14.12771         8.70636
     1999.29090       -14.67107         8.50070
     1999.29364       -10.00744         8.58219
     1999.29638       -13.96780         8.42180
     1999.29911       -13.50617         8.49941
     1999.30185       -14.82753         8.51622
     1999.30459       -17.78590         8.89262
     1999.30733        -7.17826         8.85511
     1999.31007        -1.82563         8.37006
     1999.31280       -13.49099         8.43603
     1999.31554       -13.36436         8.27693
     1999.31828        -5.19572         9.47598
     1999.32103        -9.77206         8.39722
     1999.32376         2.16255         8.67144
     1999.32649        -0.63883         8.78656
     1999.32923        -5.21318         8.68437
     1999.33197       -10.26054         8.56020
     1999.33471         0.44609         8.99093
     1999.33744        -8.76527         8.58866
     1999.34018        -2.34364         8.45543
     1999.34292         9.94000         8.88616
     1999.34566        -6.55337         8.36489
     1999.34840        -6.43773         8.37394
     1999.35113        -8.31710         8.44120
     1999.35387        -5.79446         8.48130
     1999.35661       -11.25683         8.70119
     1999.35935       -15.21519         8.46319
     1999.36209        -6.98155         8.55891
     1999.36479       -16.72799         8.41145
     1999.36756       -14.48528         8.39593
     1999.37030       -14.97965         8.45543
     1999.37304       -12.03401         8.41404
     1999.37577       -16.81438         8.71671
     1999.37851       -19.72274         8.32996
     1999.38125       -20.82311         8.39076
     1999.38399        -8.00147         8.30151
     1999.38673         3.13816         8.27693
     1999.38946       -13.23120         8.34936
     1999.39220       -22.75857         8.46190
     1999.39494       -24.23693         8.47354
     1999.39768       -13.75930         8.32608
     1999.40039        -9.92072         8.27046
     1999.40315       -15.25802         8.34290
     1999.40589       -10.82039         8.41792
     1999.40863       -10.56575         8.32608
     1999.41137        -5.88512         8.27176
     1999.41408         3.80246         8.63781
     1999.41684         2.93715         8.30668
     1999.41958         0.81279         8.61065
     1999.42232         0.45242         8.46060
     1999.42506         8.61506         8.82795
     1999.42779         0.05069         8.16310
     1999.44696        11.98414         9.21599
     1999.44970       -18.50022         8.92625
     1999.45243        -1.20559         8.75810
     1999.45517       -17.84695         8.53433
     1999.45789         2.06662         8.79173
     1999.46065        -1.25768         8.83571
     1999.46338       -10.55906         8.84994
     1999.46613        -3.45540         9.35569
     1999.46886       -15.94978         8.67015
     1999.47160        -1.92514         9.35310
     1999.47434         0.87949         9.22505
     1999.47708       -19.11287         9.05172
     1999.47981        -9.48923         8.41533
     1999.48255        -5.14160         8.31444
     1999.48529         2.65004         8.85382
     1999.48803         0.97767         8.34678
     1999.49076        11.30631         9.19400
     1999.49350        -4.32606         8.68825
     1999.49624         7.91258         9.49797
     1999.49898         1.77221         8.70636
     1999.50172         3.31685         9.21211
     1999.50443        -1.43356         8.32479
     1999.50719        -4.95688         8.32867
     1999.50993        -9.96425         8.88098
     1999.54005        -2.43926         8.18897
     1999.54278         2.29338         8.67144
     1999.54552        -0.13999         8.91203
     1999.54826         7.62965        11.75637
     1999.55100       -14.99572        10.47583
     1999.55374        -1.85008        10.28828
     1999.55645         4.60851        10.15764
     1999.55922        -4.58480        10.63364
     1999.56196        -6.73514        10.03347
     1999.56469         3.85146        10.19127
     1999.56742        15.02410        10.21843
     1999.57016         3.00173         8.47742
     1999.57290         1.93337         8.46707
     1999.57564         6.30400         8.88486
     1999.57838        -0.35536         8.47095
     1999.58111         1.03027         8.42439
     1999.58385        -0.99109         8.42309
     1999.58657        -5.54050         8.41921
     1999.58933        -7.93982         8.95730
     1999.59206        -1.38619         9.18236
     1999.59480        10.47545         8.73611
     1999.59754        -1.86891         8.51752
     1999.60026       -10.78833         9.02326
     1999.60302       -11.30164         8.92108
     1999.60574         4.31296         8.94566
     1999.60848         7.88460         8.96506
     1999.61123        -4.07874         8.55244
     1999.61368        -5.46679         9.88213
     1999.64135        -2.75075         8.76845
     1999.64408        -2.85511         9.09311
     1999.64682        11.35052         9.64930
     1999.64956         1.07716         9.18753
     1999.65230        12.64779         9.20047
     1999.65504         3.06743         8.90038
     1999.65777        -5.33094         8.98834
     1999.66051        -2.43830         9.28066
     1999.66325         8.51133         9.18624
     1999.66599        10.68997         9.53677
     1999.66872         5.79560         9.06595
     1999.67146         9.03824         8.96764
     1999.67420         4.41288         9.21987
     1999.67694        -1.33849         8.93660
     1999.67968        17.08215         9.29360
     1999.68241        12.16578         9.44752
     1999.68515         1.63442         9.70363
     1999.68789        -5.64495         8.77233
     1999.69063        11.90269         8.79820
     1999.69337        18.01032         8.91849
     1999.69610         0.52996         8.60030
     1999.69884         0.93359         8.53433
     1999.70158         5.88523         8.71154
     1999.70432         5.28586         8.65592
     1999.70705         6.67450         9.00904
     1999.70979         1.61713         8.93272
     1999.71253        10.96077         8.85253
     1999.71527         5.40941         8.76328
     1999.71801        16.36804         8.64816
     1999.72074        10.27968         9.11769
     1999.72348        10.29531         9.00904
     1999.72622        12.50795         9.15002
     1999.72896        14.06858        10.22878
     1999.73170        16.98822         9.24186
     1999.73443        23.45385         9.35439
     1999.73717        18.52849         8.78915
     1999.73991        14.91612         9.35957
     1999.74265        10.33876         8.89262
     1999.74538         8.66239         9.28325
     1999.74812        11.03903         9.39320
     1999.75086        11.12567         9.50832
     1999.75360         6.13430         9.15132
     1999.75634         7.25994         9.16296
     1999.75907        14.53657         9.03102
     1999.76181         5.74321         8.89133
     1999.76455         4.76084         8.73223
     1999.76729         2.92248         9.03361
     1999.77003         3.18111         8.90944
     1999.77276        11.98475         8.86934
     1999.77550        11.34038         8.92755
     1999.77824        12.44202         8.87969
     1999.78098         4.59465         8.69084
     1999.78371         1.18229         8.65721
     1999.78645        11.90292         8.84735
     1999.78919        11.64956         8.73482
     1999.79193         7.54620         8.56279
     1999.79467         8.63383         8.85253
     1999.79740         4.02347         9.16167
     1999.80014        -6.68190        10.89362
     1999.80287         6.69473        10.17187
     1999.80563         7.81440         9.19918
     1999.80836         2.66101         9.09182
     1999.81109         6.56163         9.26385
     1999.81384        -3.05670        10.84835
     1999.81657         3.34491        10.21843
     1999.81931        15.87355         9.75796
     1999.82204        12.63118         9.84979
     1999.82478         3.44282         9.35827
     1999.82752        -2.37754         8.84606
     1999.83026         0.73609         9.48245
     1999.83300         9.99573         8.77621
     1999.83573         3.21036         9.27420
     1999.83847         3.50600         8.87581
     1999.84121        -4.43437         8.94436
     1999.84361         2.01545        10.70090
     1999.84631         7.76400        10.75005
     1999.85584       -10.73891        15.18666
     1999.85764         9.58844         9.32076
     1999.86037        12.28308         8.97929
     1999.86311       -12.96029         8.97023
     1999.86585         1.12135         8.66756
     1999.86844         1.60962         9.20823
     1999.87209       -25.12352        13.21411
     1999.87406        13.52526         8.98575
     1999.87680        -0.14911         8.57055
     1999.87954        -3.15647         8.50976
     1999.88228        -6.29684         9.12027
     1999.88502        -6.00120         8.89004
     1999.88775        -1.10057         8.86287
     1999.89049        -4.68693         8.49553
     1999.89323       -12.10830         8.68567
     1999.89597       -12.43866         9.04267
     1999.89870        -5.02403         8.80079
     1999.90144        -9.36939         8.91849
     1999.90418        -6.95776         8.33902
     1999.90692        -7.00612         8.55632
     1999.90966        -7.53748         8.89133
     1999.91239        -5.59585         9.27161
     1999.91513        -8.57521         9.02068
     1999.91787        -7.03658         8.74387
     1999.92061        -4.47894         9.24574
     1999.92334        -3.03031         8.97411
     1999.92608        -4.02067         8.97152
     1999.92882        -2.40004         9.00645
     1999.93156         7.98060         8.76974
     1999.93430        -0.00577         9.39061
     1999.93703         2.42887         9.11251
     1999.93977        -6.57150         8.49294
     1999.94249        -1.93391         8.69343
     1999.95424       -16.24143        12.71225
     1999.95620        -3.86568         8.87710
     1999.95894        12.62195        11.33470
     1999.96077       -16.44961        16.58749
     1999.96795         0.65979        13.04208
     1999.96989         5.50449         9.66741
     1999.97263         7.33913        13.15203
     1999.97536       -12.45424         9.50961
     1999.97810        -0.37360         8.74517
     1999.98084        -3.54797         8.69860
     1999.98358        12.90967         8.84994
     1999.98905        -4.06306         9.45011
     1999.99179        -4.33042         8.68825
     1999.99453        -2.81079         9.07371
     1999.99727         2.98485         8.82666
     2000.00274        -0.86488         8.64686
     2000.00548        -2.79025        11.27649
     2000.00820        11.09034        14.51276
     2000.01096        12.75002         8.36101
     2000.01367         7.31661        11.26485
     2000.01643        -4.17871         8.79432
     2000.01835        10.23095        14.56321
     2000.02540        10.99702        13.10288
     2000.02738        13.21284         9.25738
     2000.03013        -5.70651         8.70378
     2000.03286        -7.30589         8.84088
     2000.03560        12.66974         8.96376
     2000.03833         4.03238         8.73094
     2000.04013        40.21572        17.66366
     2000.04730        -2.94590        12.41087
     2000.04895         2.11510        10.59095
     2000.05554        -2.97092        13.47152
     2000.05711        -1.52813        10.54568
     2000.06371        -5.16813        12.95413
     2000.06471        13.72931        18.21727
     2000.07197        -0.10910        14.20491
     2000.07393       -10.15736         9.94680
     2000.07666        -2.74173         8.91979
     2000.07940       -13.11509         9.35827
     2000.08214       -13.05146         9.03749
     2000.08488       -13.40882         9.06207
     2000.08762       -11.33019         9.08147
     2000.09035       -13.00755         9.19271
     2000.09309        -6.78192         8.54985
     2000.09583       -13.88728         9.08018
     2000.10136       -11.55787         8.85123
     2000.10404        -7.34137         8.99222
     2000.10678       -11.33774         9.26902
     2000.10952       -15.57410         8.91203
     2000.11226        -6.58847         8.25753
     2000.11499       -19.35883         8.57831
     2000.11773       -12.80220         8.50329
     2000.12047        -0.40656         8.78915
     2000.12266        -6.65526        11.24157
     2000.12886       -16.06523         8.70119
     2000.13142       -11.86402         8.15534
     2000.13416         2.68061         9.84850
     2000.13690        -5.73675         8.96764
     2000.13964        -2.98611         8.87451
     2000.14227       -10.91673         9.46951
     2000.14511        -4.90684         8.65204
     2000.14785       -11.20821         8.28986
     2000.15059        -5.67557         8.37265
     2000.15331         4.31603         8.48906
     2000.15606        13.86570         8.93013
     2000.15880        -2.19467         8.80855
     2000.16154       -12.21203         8.64686
     2000.16428         0.21960         8.67403
     2000.16701         1.33024         8.76586
     2000.16952         3.92432        10.95959
     2000.17249         7.22551         8.88486
     2000.17523         8.82214         8.42956
     2000.17797         4.21078         9.97655
     2000.18006        12.26885        12.32809
     2000.18727       -12.36166        23.48687
     2000.18892        -5.44568         9.07112
     2000.19165        -5.65104         8.82278
     2000.19439        -7.85341         8.76716
     2000.19713         2.82523         9.03232
     2000.19987        22.35986        10.57931
     2000.20261         5.04450         8.90556
     2000.20534        -5.03588         9.34016
     2000.20808        -1.38224         9.15002
     2000.21082         1.63640         8.98446
     2000.21356         4.55704         8.71024
     2000.21629         0.50567         9.10605
     2000.21903        -4.49569         8.60547
     2000.22177       -11.85605         8.94954
     2000.22451         1.14858         9.02456
     2000.22725        -1.86778         9.15261
     2000.22998         1.11085         8.49035
     2000.23272         4.29849         9.56135
     2000.23546        -2.78288         9.47339
     2000.23820        -2.56524         8.71800
     2000.24094         4.14739         9.16813
     2000.24367        -2.10997         8.74387
     2000.24641        -0.25434         9.49797
     2000.24823        30.49408        18.45915
     2000.25523       -10.48597        11.32306
     2000.25736        -9.10779         8.76716
     2000.26010        -4.79716         8.79432
     2000.26284         2.69848         9.29101
     2000.26558        10.46811         9.05948
     2000.26831        -9.07625         8.76069
     2000.27105         6.49738         8.80467
     2000.27379        -7.10698         8.76457
     2000.27653       -10.57735         8.72577
     2000.27927        -8.25071         9.30783
     2000.28200       -11.07908         9.19400
     2000.28474         2.02356         8.75034
     2000.28748        -2.97681         9.61826
     2000.29022         7.54183         8.89521
     2000.29295        11.39546         9.07112
     2000.29569         6.62510         8.81890
     2000.29843         8.19374         9.37509
     2000.30117         0.51337         9.05560
     2000.30391         5.31801         9.17977
     2000.30664        11.33464         8.88098
     2000.30938         2.22028         8.68437
     2000.31212         4.32791         9.14226
     2000.31486         3.78655         9.24574
     2000.31760         1.41518         8.87839
     2000.31993         0.67485        10.60259
     2000.32369        -2.20904        12.79503
     2000.32581        -3.27091         9.03749
     2000.32855        -3.40828         9.13709
     2000.33128         6.30636         8.97282
     2000.33402         1.24600         9.02068
     2000.33673       -11.17444         9.39190
     2000.34009         1.22971        12.18839
     2000.34224        -6.33010         8.89004
     2000.34497        -0.61946         9.39708
     2000.34771        -1.35083         8.77104
     2000.35045        12.15181         9.05172
     2000.35319         5.15344         9.05301
     2000.35593         3.62308         9.05172
     2000.35866        -2.07729         9.06983
     2000.36140         0.26535         9.05301
     2000.36414         1.13698         8.93660
     2000.36688        22.99662         9.50314
     2000.36961         3.71225         9.21340
     2000.37235         1.76789         8.97799
     2000.37509        -5.61547         8.87969
     2000.37783       -10.53984         8.87193
     2000.38057        -5.88920         8.82148
     2000.38330         6.27043         8.74387
     2000.38604         2.92807         8.97152
     2000.38878         2.01770         9.14226
     2000.39152         7.52634         9.34016
     2000.39426         4.39597         9.00257
     2000.39699         9.14261         9.04008
     2000.39973        -1.47076         9.08923
     2000.40247        -1.59912         9.45916
     2000.40521         5.53251         9.15778
     2000.40794        -7.24785         8.63652
     2000.41068        -4.83522         8.87969
     2000.41342        -0.86458         8.69472
     2000.41616         3.48206         8.93789
     2000.41890        -3.41931         8.29763
     2000.42163         2.45633         9.16813
     2000.42437         0.67996         8.46190
     2000.42711        15.36160         8.88357
     2000.42985         5.48523         8.49423
     2000.43259         8.34387         8.84994
     2000.43532        -4.18950         9.26514
     2000.43795        -1.06814         9.82134
     2000.44690         0.63857        12.89980
     2000.44901        -1.07232         8.61841
     2000.45175         4.98132         8.99222
     2000.45449        20.03595         9.84074
     2000.45723        10.91459         9.33628
     2000.45996         1.48322         8.76457
     2000.46271         1.60587         8.87710
     2000.46544         5.99349         8.90038
     2000.46818         5.87613         8.76457
     2000.47092         6.87177         8.29633
     2000.47366        -3.65659         9.33887
     2000.47639        -1.39897         8.90556
     2000.47913         9.59768         8.83830
     2000.48187        -2.11370        10.13953
     2000.48460        -0.38106         9.35957
     2000.48734         4.54857         9.10863
     2000.49008         1.17821         9.50444
     2000.49282        10.16786         9.52513
     2000.49556         1.09548         8.81631
     2000.49830        -2.64987         9.84074
     2000.50104        -2.39624         9.28713
     2000.50377         6.81339         8.52269
     2000.50651         4.60803         8.77104
     2000.50924        -4.60234         8.51622
     2000.51198         0.69929         8.88357
     2000.51472        -2.20407         9.26256
     2000.51746         0.38656         9.60274
     2000.52020         1.00720         9.38673
     2000.52293         4.02383         9.33370
     2000.52567         1.00847         9.24833
     2000.52841        -3.46588         9.52642
     2000.53115        -1.32326         8.42827
     2000.53389         3.90438         8.87581
     2000.53662         4.60301         9.43717
     2000.53936        -3.17435         8.61582
     2000.54210        -3.16172         9.40096
     2000.54484         2.91192         9.07759
     2000.54757         4.28455         9.27678
     2000.55031         1.71519         8.97541
     2000.55305         0.52182         8.65462
     2000.55579        -7.05954         9.26773
     2000.55853       -19.16291         9.53160
     2000.56126        -0.45927         8.97152
     2000.56400        -0.66664         9.25868
     2000.56674         2.33300         8.90426
     2000.56948         5.07464         9.48374
     2000.57222        -3.85673         9.45916
     2000.57495        -9.28809        10.12401
     2000.57769        -0.22746         9.05948
     2000.58043        -5.10182         9.31559
     2000.58317       -13.73219        10.66985
     2000.58590        -8.22855         9.53289
     2000.58865        -6.29291         9.92093
     2000.59139        -8.36827         9.82780
     2000.59412       -10.60265         9.69070
     2000.59686        -3.71101         9.59627
     2000.59959         9.09662         9.60533
     2000.60233         3.32426        11.18207
     2000.60507        -6.54109        11.58434
     2000.60781        -9.37047        10.22749
     2000.61055         2.62417         9.17848
     2000.61328        -5.43320        10.79661
     2000.61603        -2.75955         9.88084
     2000.61876        -3.36693         9.43200
     2000.62150         0.13071         9.57816
     2000.62423        -7.89266         9.32335
     2000.62697         9.54998         9.64154
     2000.62971         4.84061         9.53548
     2000.63245         0.19426         8.92367
     2000.63519         1.02688         9.56523
     2000.63792        -1.33948         8.90426
     2000.64066        -1.14585         9.25868
     2000.64340        -6.54920         9.62861
     2000.64614       -10.14557        10.16540
     2000.64888        -3.58594         9.40225
     2000.65161       -11.40130         9.57299
     2000.65435         6.68733        10.05545
     2000.65709        -0.92403         9.58592
     2000.65983         5.87460         9.70880
     2000.66256         0.51524         9.91576
     2000.66530         9.28887         9.11122
     2000.66804         3.41951        10.32579
     2000.67078         7.00014         8.93013
     2000.67352        11.53178         8.91591
     2000.67625        -0.28059         9.50832
     2000.67899         2.77505         9.10217
     2000.68173        13.52868         9.22505
     2000.68447        -4.82868         9.97009
     2000.68721         6.15396         9.76442
     2000.68994        -9.36541        10.12272
     2000.69268        -2.49877         9.93904
     2000.69542        -5.29114         9.33887
     2000.69816        11.12350         9.06983
     2000.70089         3.10513         9.82134
     2000.70363        25.79277        10.90268
     2000.70637         6.31240         9.21340
     2000.70911        -0.44396         8.99998
     2000.71185        -5.05033         8.90168
     2000.71458         6.02531         9.31041
     2000.71732         4.99494        10.20938
     2000.72006         1.39659         8.85770
     2000.72280        -1.69879         8.96376
     2000.72554         1.62185         9.49409
     2000.72827         3.51849         8.99869
     2000.73101         5.24412         8.64298
     2000.73375        -3.97723         9.57170
     2000.73649        -2.55361         8.99739
     2000.73928        -5.79083        10.44867
     2000.74196         3.75666         9.57170
     2000.74470         4.00830         9.43329
     2000.74744         4.13193         9.52901
     2000.75018        -0.97143         9.16296
     2000.75291         7.71220         8.91461
     2000.75565         4.52284         9.35439
     2000.75839        11.79447         8.70766
     2000.76113        11.28111         8.82536
     2000.76387         8.09175         8.83183
     2000.76660        13.36438         8.64040
     2000.76934        10.10002         8.92367
     2000.77208        10.99365         9.53030
     2000.77482        19.06429         8.81890
     2000.77755         4.64092         8.71283
     2000.78029         7.82656         9.56264
     2000.78303         6.83619         8.87710
     2000.78577        10.03683         9.05301
     2000.78851         2.61546         8.83054
     2000.79124         8.83510         8.80337
     2000.79398        13.33273         9.45787
     2000.79672         3.50637         9.13838
     2000.79946         1.75500         9.90541
     2000.80220        17.25564         9.28713
     2000.80494        19.71229         8.94436
     2000.80767        11.13591         8.90814
     2000.81041         9.95855         8.88874
     2000.81315         4.96418         8.65850
     2000.81588        14.27482         9.31041
     2000.81862         2.04745         8.90297
     2000.82136         3.65209         8.84735
     2000.82410        17.02472         8.94566
     2000.82684         5.26036         8.59383
     2000.82957        11.89499         9.01162
     2000.83231         1.28563         8.77233
     2000.83505        10.91326         8.87193
     2000.83779         9.14491         8.45672
     2000.84052        10.25354         8.51105
     2000.84326         5.81417         8.63781
     2000.84600         3.98981         8.62617
     2000.84874         2.89644         8.57443
     2000.85148         9.45508         8.69602
     2000.85421        21.53871         8.85382
     2000.85695        12.06035         8.54339
     2000.85969         9.60298         8.92884
     2000.86243        -0.04038         8.32867
     2000.86517        16.22525         8.26400
     2000.86790         7.90989         8.41404
     2000.87064         8.48952         8.55373
     2000.87338        -0.28984         9.24962
     2000.87612        13.24279         8.66368
     2000.87885        12.74443         8.53304
     2000.88159         7.28807         8.48777
     2000.88433        11.79270         8.96506
     2000.88707        19.01234         8.83571
     2000.88981        22.71497         9.19400
     2000.89254         5.48361         8.58478
     2000.89528         4.96324         8.97411
     2000.89802        12.83488         8.78526
     2000.90075         0.90550         8.70378
     2000.90350         2.13715         8.68825
     2000.90622         6.49675         9.35051
     2000.90903        -3.77844        11.29072
     2000.91171        12.74305         9.09570
     2000.91445         5.45469         9.02456
     2000.91718         9.89432         9.35957
     2000.91992         0.67196         9.26773
     2000.92266        -2.60840         8.97799
     2000.92540         3.72223         9.68293
     2000.92814         5.21187         8.98187
     2000.93087         5.38050         8.63005
     2000.93361        -9.26086         8.86934
     2000.93635         3.51077         8.90297
     2000.93909        -3.81959         8.45672
     2000.94183       -10.44496         8.78138
     2000.94456         6.29068         9.18365
     2000.94730        -2.87869         8.68825
     2000.95003        -3.64506         8.69213
     2000.95278         2.71458         8.37653
     2000.95551        -2.69878         8.37782
     2000.95825         1.02186         8.30021
     2000.96099        18.14149         8.94954
     2000.96373        11.54114         8.49811
     2000.96647         8.01976         9.10087
     2000.96920        11.84540         8.72706
     2000.97194        10.29003         8.81890
     2000.97468         3.56167         8.49553
     2000.97742         0.08930         8.27693
     2000.98016         0.84494         8.20062
     2000.98289         0.82957         8.18251
     2000.98563         5.65021         8.19544
     2000.98837        -2.95516         8.40628
     2000.99111         7.26048         8.38429
     2000.99384        -0.13989         8.22519
     2000.99658         2.84775         8.27693
     2000.99932        16.76139         8.63393
     2001.00480         6.65766         8.42180
     2001.00753        -2.55971         8.47612
     2001.01027         3.35893         8.70507
     2001.01301        11.61456         8.86287
     2001.01575        -2.64880         8.45414
     2001.01849        -1.22617         8.36877
     2001.02122        -8.16853         8.55244
     2001.02396         4.22010         8.47871
     2001.02670         0.08374         8.77233
     2001.02944         1.94337         8.60677
     2001.03217        -2.70299         8.45155
     2001.03491         3.44764         8.96118
     2001.03765        -3.22672         8.39205
     2001.04039         7.15992         8.34548
     2001.04313        -4.20145         8.37135
     2001.04586         7.29719         8.60935
     2001.04860        -1.09918         8.54856
     2001.05133        -4.94258         8.58995
     2001.05408         0.98509         8.68308
     2001.05682         6.92273         8.64169
     2001.05955        10.57736         8.48647
     2001.06229        -6.01700         9.37897
     2001.06503         8.77663         8.92755
     2001.06777        -2.15673         8.86546
     2001.07050         1.91890         8.69602
     2001.07324        12.91154         8.56796
     2001.07598         8.99418         8.53562
     2001.07872         6.79981         8.71283
     2001.08146        -2.49655         8.52140
     2001.08419         3.78908         8.90426
     2001.08693         8.37072         8.55632
     2001.08967         0.40835         8.66885
     2001.09241       -10.03101         8.56796
     2001.09515         2.95062         8.69472
     2001.09788        -5.12574         8.64298
     2001.10062         2.38089         8.44120
     2001.10336        -0.74547         8.41921
     2001.10609        -7.41986         8.77750
     2001.10894        -0.03395         9.42941
     2001.11157         3.06543         8.54597
     2001.11431        13.53807         8.89909
     2001.11705        -2.99729         8.53562
     2001.11979         7.23734         8.49423
     2001.12252         4.91498         8.79044
     2001.12526        -2.71639         8.59512
     2001.12800         1.13125         8.55115
     2001.13074         1.93788         8.33902
     2001.13347        -1.40248         8.47224
     2001.13621        11.39315         8.58607
     2001.13895        11.93779        12.82995
     2001.14169         9.15242         8.91591
     2001.14443        -1.74994         8.56020
     2001.14716        -2.97131         8.40498
     2001.14990        -4.50367         8.56020
     2001.15264        -5.30303         8.94307
     2001.15538         4.19960         8.34936
     2001.15812         7.76424         8.57443
     2001.16085         4.25087         8.65850
     2001.16359         4.60651         8.70895
     2001.16633        -3.34386         8.98963
     2001.16907        -9.75622         8.45931
     2001.17180         0.41541         8.71930
     2001.17454       -27.95595         8.90168
     2001.17728       -11.81332         8.36230
     2001.18002        -7.66368         8.46190
     2001.18276       -12.63105         8.54985
     2001.18549        -3.47241         8.80467
     2001.18823       -10.30578         8.87839
     2001.19097         1.18786         8.89521
     2001.19371        -0.65950         8.82795
     2001.19642         5.19207         8.73999
     2001.19918        -1.96423         8.67144
     2001.20192         2.64140         8.69731
     2001.20460        -8.27310         9.38026
     2001.20740        -9.63733         8.70378
     2001.21013        -4.96469         8.46707
     2001.21287        -2.07006         8.50199
     2001.21561        -9.88542         8.49941
     2001.21835        -2.54279         9.20823
     2001.22109        -4.27515         8.81372
     2001.22382        -0.79052         8.51234
     2001.22656        13.21112         8.85382
     2001.22930         5.98375         8.73482
     2001.23204        -1.64361         8.76845
     2001.23399        -3.62188        12.88299
     2001.23672       -12.80226        14.19845
     2001.23951         3.21651        13.16108
     2001.24299        -2.70207         8.91073
     2001.24573        -0.64243         9.01938
     2001.24846        -2.36880         8.98446
     2001.25120        -5.77916         8.83959
     2001.25394        -9.09053         8.90426
     2001.25668         7.29311         8.65592
     2001.25942        -6.21326         8.86417
     2001.26215         4.42038         8.89133
     2001.26489         8.67901         8.87322
     2001.26763        -0.35635         8.80337
     2001.27037         0.05229         8.59900
     2001.27311         3.55992         8.79691
     2001.27584         1.88256         8.97282
     2001.27858         5.32819         8.84606
     2001.28132        -3.05617         8.88357
     2001.28406        -2.13954         8.93272
     2001.28679        -0.86090         8.87710
     2001.28953        -4.59927         9.44364
     2001.29227         2.87337         8.97541
     2001.29501        -6.33700         9.10863
     2001.29775        -0.87836         8.65074
     2001.30048         1.48827         8.83571
     2001.30322         1.71191         8.65074
     2001.30596        -3.85446         8.92108
     2001.30870        -2.28182         8.68567
     2001.31144       -11.69118         8.61065
     2001.31417        -0.04255         8.91979
     2001.31691        -2.05691         8.76845
     2001.31965         3.52872         8.68825
     2001.32239         8.69336         8.88616
     2001.32512        -1.16301         8.56020
     2001.32786       -13.98737         8.87969
     2001.33060         3.18126         8.81631
     2001.33334        11.05090         8.37523
     2001.33608         8.52253         8.51234
     2001.33881         5.29017         8.52140
     2001.34155        -0.73620         8.59124
     2001.34429         3.82544         8.71930
     2001.34703        -2.02892         8.71930
     2001.34977         7.59371         8.67273
     2001.35250         5.36635         8.33384
     2001.35524         3.21798         8.48389
     2001.35798         5.96562         8.61841
     2001.36072         5.54325         8.62358
     2001.36345         3.36089         8.93272
     2001.36619         4.32852         8.68049
     2001.36893         8.38616         8.70766
     2001.37167        -0.17421         8.70895
     2001.37441        -0.93657         8.90038
     2001.37711         4.65498         9.42812
     2001.37990         4.37973         9.09052
     2001.38262        19.31133         9.48245
     2001.38536         9.64197         8.70766
     2001.38810        11.06161         9.00257
     2001.39083         6.50224         8.42309
     2001.39357         4.32488         8.37653
     2001.39631         6.33551         8.41404
     2001.39905        14.45115         8.70766
     2001.40178        17.42578         8.82536
     2001.40452         8.36942         9.04008
     2001.40726         0.75605         9.52772
     2001.41000        13.90169         9.55488
     2001.41274         7.01932         8.55115
     2001.41547        16.33496         8.67015
     2001.41821         0.86759         8.29633
     2001.42095         7.62423         8.45543
     2001.42369         0.53386         8.58090
     2001.42643         6.66750         8.47224
     2001.42916         8.58914         8.73353
     2001.43190         3.33577         8.46707
     2001.43464         2.37141         8.62099
     2001.43738        -8.64296         8.31185
     2001.44011         6.36568         8.30797
     2001.44285         2.61131         8.34678
     2001.44559         2.66795         8.37135
     2001.44833         7.16258         8.38817
     2001.45107         0.23122         8.47612
     2001.45380        -6.43415         8.31832
     2001.45654        -0.96351         8.30280
     2001.45928         6.13112         8.69084
     2001.46202        11.72376         8.44120
     2001.46475         6.00940         8.71542
     2001.46749        12.31403         8.68696
     2001.47023        -0.97833         8.52140
     2001.47297        -4.06870         8.49682
     2001.47571        -6.98106         8.49553
     2001.47844        12.17257         8.79691
     2001.48118        -3.25979         8.43603
     2001.48392        10.05184         8.46707
     2001.48666        16.54148         9.35957
     2001.48940         8.61211         8.11654
     2001.49213        -7.45325         8.20967
     2001.49487         0.92138         8.20967
     2001.49761         6.17202         8.15922
     2001.50035        -1.34335         8.06480
     2001.50308        -0.16771         9.86143
     2001.50582        -2.73507         8.31573
     2001.50856         0.22256         8.49941
     2001.51130         9.41320         8.10749
     2001.51404         3.55683         8.32479
     2001.51677         3.05447         8.22260
     2001.51951        -9.07690         8.15793
     2001.52225         4.63674         8.52657
     2001.52499        -6.32863        11.24416
     2001.52773        -1.98099         8.70766
     2001.53046        -4.21936         8.42439
     2001.53320        -9.54972         8.44767
     2001.53594        -0.78509         8.19027
     2001.53868        -6.66645         8.17475
     2001.54141        -1.57681         8.16052
     2001.54415        -5.95618         8.11007
     2001.54689        -4.70354         8.13077
     2001.54963        -7.94891         8.50846
     2001.55237        -1.79627         8.15534
     2001.55510        -0.41464         8.10878
     2001.55784        -1.30000         8.16828
     2001.56058        10.38163         8.27564
     2001.56332        19.57527         8.20967
     2001.56605         0.55489         8.46836
     2001.56879         4.49454         8.49165
     2001.57153         0.22317         8.50976
     2001.57427         0.88181         8.80725
     2001.57701         3.23444         9.10605
     2001.57974         0.43508         9.17201
     2001.58248         7.77372         8.37394
     2001.58522         4.28035         8.47742
     2001.58796         9.81399         8.98187
     2001.59070         9.04162         8.61065
     2001.59343         2.28326         8.62229
     2001.59617        17.35189         8.52786
     2001.59891         7.32853         8.59642
     2001.60165        13.67716         8.96894
     2001.60439        21.52280         9.36733
     2001.60712         6.45243         8.67403
     2001.60986        10.47807         8.15534
     2001.61260        14.59370         8.69343
     2001.61534         1.26434         8.49165
     2001.61807        10.34097         8.50199
     2001.62081         0.82761         8.46707
     2001.62355        -0.38175         8.40369
     2001.62629         3.57588         9.91576
     2001.62903        -8.84348         8.66627
     2001.63176        14.31615         8.82795
     2001.63450         3.35879         8.77621
     2001.63725         1.77345         8.99481
     2001.63998        14.32306         8.46836
     2001.64272        19.16369         8.71671
     2001.64546        10.19334         8.40628
     2001.64819         8.98396         8.74646
     2001.65093         2.11660         8.43473
     2001.65367         9.81923         8.32220
     2001.65640         5.97087         8.66238
     2001.65914        10.05251         8.87451
     2001.66188        17.20514         8.88745
     2001.66462        25.21678         9.53936
     2001.66736        20.79341         8.89262
     2001.67009        23.71205         9.22505
     2001.67283        18.02968         8.78268
     2001.67557         5.89632         9.03749
     2001.67831        19.10295         9.10605
     2001.68105        18.18659         9.01550
     2001.68378         3.41022         8.20708
     2001.68652        12.41086         8.43215
     2001.68926        11.42249         8.65592
     2001.69200        17.23113         8.42309
     2001.69474        29.12478         8.83442
     2001.69747        15.88340         8.66368
     2001.69996        23.41544        10.19903
     2001.70295        17.81367         8.59383
     2001.70569         9.52431         8.22778
     2001.70842        18.20994         8.89780
     2001.71116        17.76358         8.59254
     2001.71390        21.07821         8.30668
     2001.71664        14.00585         8.56408
     2001.71938        14.21248         9.24833
     2001.72211        12.84012         8.37523
     2001.72485         6.93075         8.37265
     2001.72759        10.62739         8.19156
     2001.73033        16.74202         8.53433
     2001.73306        27.17566         9.63378
     2001.73581        15.43431        11.45758
     2001.73854        13.08693         9.93128
     2001.74128        25.22557         9.68940
     2001.74402        12.74620        10.57931
     2001.74676         1.19085        14.16870
     2001.74950        17.83548        11.79518
     2001.75223        21.82812        10.19774
     2001.75497        11.26375        12.30222
     2001.75771        16.76239        12.25306
     2001.76045        18.73602        10.99581
     2001.76319        15.85866         8.53692
     2001.76592        22.54028         8.94178
     2001.76866         9.77792         9.46822
     2001.77139        14.86355         8.54856
     2001.77413        16.60719         8.18639
     2001.77687        14.68583         8.14241
     2001.77961        26.64946         8.70895
     2001.78235        18.52010         8.76457
     2001.78508        11.91473         8.52528
     2001.78782        17.58537         8.18380
     2001.79056        13.06100         9.10993
     2001.79330        14.21964        10.64140
     2001.79603        16.57827         8.21226
     2001.79877        15.92591         8.74258
     2001.80151        21.03554         8.42439
     2001.80425        24.09018         8.59124
     2001.80699        17.99981         8.83830
     2001.80972         5.28245         8.56408
     2001.81246        16.69808         8.07256
     2001.81520         8.44272         8.46836
     2001.81794        18.20336         8.53821
     2001.82065        14.05992         8.52010
     2001.82349        16.00682         9.09311
     2001.82615        22.09926         8.27046
     2001.82885        28.92580         8.34807
     2001.83178        18.75591         8.71024
     2001.83436        23.62517         9.45658
     2001.83710        18.97280         8.57314
     2001.83984         7.98244         8.50199
     2001.84258         7.19707         8.32608
     2001.84532        10.79571         8.95730
     2001.84805        31.60734         9.53419
     2001.85079         7.52898         8.18251
     2001.85353         9.48262         9.09440
     2001.85627         6.27325         8.66238
     2001.85901         5.61591         8.28598
     2001.86174         7.59152         8.44508
     2001.86448        16.22616         9.45787
     2001.86722        20.40679         8.86934
     2001.86996        12.65243         8.46319
     2001.87269         5.98806         8.40628
     2001.87543        23.62370        10.05934
     2001.87817        10.68733         8.26400
     2001.88091        26.82997         8.49423
     2001.88365        26.98660         8.93013
     2001.88638         6.20524         8.94048
     2001.88912        27.89787         8.79303
     2001.89186        19.94551         9.06983
     2001.89460         7.54815         8.71024
     2001.89734        30.06378         9.14873
     2001.90007         6.39142        12.72389
     2001.90281        16.75805         8.96247
     2001.90555        14.48269         8.54727
     2001.90829        29.76332         9.41907
     2001.91102        15.95096         8.68955
     2001.91376        14.27059         8.46060
     2001.91650        28.28423         8.45672
     2001.91924        14.18486         8.75163
     2001.92198        16.01350         8.30539
     2001.92471         2.73013         8.76845
     2001.92745        26.38377         8.49682
     2001.93019        19.81640         8.51752
     2001.93293         1.93704         8.13206
     2001.93567         5.46668         8.15664
     2001.93840        14.38631         8.71283
     2001.94114        15.82095         8.74258
     2001.94388        15.93458         8.47483
     2001.94662         0.83622         8.48130
     2001.94935        13.23785         8.09714
     2001.95209         9.24049         8.67403
     2001.95362        51.94820        33.37935
     2001.98602         8.84072        22.10932
     2001.98768        10.94875         8.39852
     2001.99042        -3.67162         8.23813
     2001.99316         2.46002         7.90570
     2001.99590        10.61865         8.35713
     2001.99864         6.27929         8.45155
     2002.00411        17.62256         8.32350
     2002.00685         7.14119         8.17733
     2002.00959        10.68983         8.34419
     2002.01233        10.29947         8.91461
     2002.01506        28.94210         8.52786
     2002.01780         0.95674         8.52786
     2002.02053         3.06236         8.51234
     2002.02329       -12.96597         8.60935
     2002.02601       -12.39336         9.35051
     2002.02875        12.50228         8.66238
     2002.03149        -0.14709         8.85641
     2002.03423         3.28355         8.57831
     2002.03697        -1.72082         8.44638
     2002.03970        11.00182         8.78915
     2002.04244        14.27345         8.61453
     2002.04518        12.70309         8.65850
     2002.04792         4.49173         8.36101
     2002.05065         6.14336         8.51752
     2002.05339         4.80300         8.12430
     2002.05613         9.74663         8.45155
     2002.05887        -4.34873         8.32479
     2002.06161         2.92290         8.11137
     2002.06435        -7.22145         8.24589
     2002.06708         0.43617         8.42568
     2002.06982        15.08881         8.38558
     2002.07255        -1.38357         8.53951
     2002.07530         1.59208         8.29504
     2002.07803        -5.82329         8.26658
     2002.08077        -0.06665         8.19156
     2002.08351        -6.70602         8.10231
     2002.08625         3.85162         8.15017
     2002.08898         8.83926         8.42956
     2002.09172       -11.46311         8.50458
     2002.09446        -5.38747         8.50846
     2002.09720         9.97216         9.48115
     2002.09994        12.70480         8.97799
     2002.10267        23.07543         8.78009
     2002.10541         1.14007         8.43085
     2002.10815         5.71970         8.36747
     2002.11089        -3.64466         8.66368
     2002.11363         1.23097         8.88357
     2002.11636        10.16961         8.91073
     2002.11911         2.34726        12.86358
     2002.12184        -0.01812         8.85641
     2002.12458         5.29351         8.95471
     2002.12731         3.33515         8.82407
     2002.13005        16.62179         9.00386
     2002.13279        11.20542         8.66497
     2002.13553        14.78106         9.16813
     2002.13827        20.25569         8.75940
     2002.14100        -0.56167         8.84347
     2002.14374        -7.30104         8.94436
     2002.14648        14.61160         8.72318
     2002.14922         6.87023         8.64298
     2002.15196         1.33687         8.68825
     2002.15469        -5.82750         9.04396
     2002.15743        -1.61986         9.17460
     2002.16017         4.30177         9.42165
     2002.16291         7.53641         8.91073
     2002.16564        -6.69595         8.67144
     2002.16838         3.07868         8.75422
     2002.17112        -4.28968         8.35971
     2002.17386        -5.75005         8.69860
     2002.17660        -4.44741         8.85770
     2002.17933         2.35022         8.46190
     2002.18207        -2.26914         8.40110
     2002.18481        -4.90051         9.17331
     2002.18755        -2.95887         8.53304
     2002.19029         3.74876         9.17848
     2002.19302         4.16740         8.59512
     2002.19576        10.20403         8.82666
     2002.19850         2.30767         8.53821
     2002.20124         0.89230         8.68437
     2002.20397         1.67194         8.54856
     2002.20671        -5.16942         8.64686
     2002.20945         6.74221         8.96635
     2002.21219         8.54785         8.54856
     2002.21493         2.01048         8.80725
     2002.21766        -9.16488         8.74905
     2002.22040         6.21575         9.79417
     2002.22314         2.09439         9.09570
     2002.22588       -15.05398         8.74517
     2002.22862         3.07266         9.15649
     2002.23135        -0.63471         9.54971
     2002.23409        -3.07407         9.54583
     2002.23683        16.43656         8.91332
     2002.23957       -10.16780         8.35454
     2002.24230        -8.60617         8.54856
     2002.24504         3.14947         8.30797
     2002.24778       -10.60589         8.70507
     2002.25052        -1.36726         8.35066
     2002.25326        -4.44962         8.41016
     2002.25599        -2.88699         8.47871
     2002.25873        -1.94235         9.00904
     2002.26147       -11.31172         8.50717
     2002.26421        -4.18908         8.33514
     2002.26695         2.76955         8.87063
     2002.26968        -8.55981         9.02456
     2002.27242        -4.09618         8.87581
     2002.27516        -8.92554         9.75149
     2002.27790        -3.42091         8.48906
     2002.28063         7.25173         8.82278
     2002.28337        15.82537         8.99739
     2002.28611         4.94500         8.74905
     2002.28885         2.70164         8.56408
     2002.29159        -0.89173         8.95600
     2002.29432        -1.65209         8.95083
     2002.29706         5.80254         8.24589
     2002.29980        -8.47582         8.58995
     2002.30254        -3.33819         8.33126
     2002.30528        -3.88355         8.61194
     2002.30801        -2.34492         8.50846
     2002.31075         1.34072         8.28469
     2002.31349        -6.60365         8.86934
     2002.31623         2.64199         8.30797
     2002.31896        -4.16638         8.42439
     2002.32170         1.59926         8.25753
     2002.32444         2.06390         8.28986
     2002.32718        -1.93747         8.44767
     2002.32992        -3.18283         8.68049
     2002.33265       -12.77020         8.36618
     2002.33539         4.50444         8.54856
     2002.33813         2.26607         8.36877
     2002.34087        -1.84229         8.38170
     2002.34361        -8.90566         8.62875
     2002.34634        -2.27402         8.47742
     2002.34908        -0.72139         8.30539
     2002.35182        -2.22475         8.35066
     2002.35456         1.83188         8.40628
     2002.35729         3.21752         8.32479
     2002.36003        -3.04884         8.32608
     2002.36277        -9.06421         8.58736
     2002.36551         3.87643         8.34678
     2002.36825        -1.30194         8.37653
     2002.37098         0.50770         8.13465
     2002.37372         0.25433         8.53304
     2002.37646        -5.94703         8.45284
     2002.37920         2.26760         8.68825
     2002.38193         7.93424         9.00257
     2002.38467         3.81287         8.15664
     2002.38741         4.41551         8.13724
     2002.39015         4.22016         8.15405
     2002.39289         0.62778         8.33643
     2002.39562         4.98841         8.31056
     2002.39836        -0.62895         8.27693
     2002.40110        14.83567         9.03620
     2002.40383        -4.33370         8.64557
     2002.40657         9.74593         8.78526
     2002.40931         6.69159         9.35051
     2002.41206        -0.18176         8.83959
     2002.41478        -4.99115         9.71398
     2002.41752         3.47947         8.18897
     2002.42026        -0.41888         8.69602
     2002.42299        11.21973         9.25091
     2002.42541       -11.90639        13.02527
     2002.42848         4.55204         8.01953
     2002.43122         6.33467         8.30668
     2002.43395         9.40731         8.24071
     2002.43669         9.89694         8.18251
     2002.43943         2.87258         8.22390
     2002.44217         0.81922         8.09972
     2002.44491        12.13485         8.18251
     2002.44764         4.95749         8.17345
     2002.45038         6.08212         8.42568
     2002.45312         9.35076         7.96003
     2002.45586         7.73239         8.12818
     2002.45859        14.78303         8.07903
     2002.46216         1.86367        27.97134
     2002.46399        14.98011        52.45419
     2002.46672        -7.41529        20.55069
     2002.47078       -37.32545       116.73589
     2002.47228         5.44320         8.07903
     2002.47502         2.08384         8.15534
     2002.47776         2.12948         8.06739
     2002.48050         9.22411         8.27434
     2002.48324        10.38675         8.84476
     2002.48597         7.66638         8.77880
     2002.48871        14.54702         8.88616
     2002.49145         8.23965         8.18121
     2002.49419         6.13329         8.31056
     2002.49692        -2.64008         9.19400
     2002.49966        12.10156         9.48633
     2002.50241        -0.27980         9.74890
     2002.50509        -5.72029        10.13048
     2002.50788        -9.36254         9.35051
     2002.51061        15.29510         9.63249
     2002.51335        20.75872         9.97009
     2002.51611         9.22042         9.05948
     2002.51884        -6.05797         9.82780
     2002.52157        -4.30736         8.44508
     2002.52430        -7.31972         8.15405
     2002.52704        -0.31009         8.51881
     2002.52978        -9.09345         8.18121
     2002.53252         2.92518         8.37265
     2002.53525         3.54682         8.77233
     2002.53799        -8.96855         8.76716
     2002.54073        -1.62791         8.30668
     2002.54347        -2.14028         8.79044
     2002.54621        -0.94064         8.47871
     2002.54856       -21.78594        15.49839
     2002.55107         0.91014        26.76194
     2002.55472         3.04599         9.81487
     2002.55716         5.05790         8.96764
     2002.55990        -0.70446         8.54339
     2002.56263         2.36117         8.50976
     2002.56537        -6.01519         8.53045
     2002.56811        16.70944         8.90685
     2002.57085         8.88308         8.27822
     2002.57358        -1.74029         8.34807
     2002.57632         1.93835         8.47224
     2002.57906         3.63198         8.36101
     2002.58180        -4.25138         8.07903
     2002.58454        -0.79875         8.32091
     2002.58727        -1.23511         8.33902
     2002.59001        10.76752         8.56925
     2002.59275         3.71216         8.29504
     2002.59549        -0.98020         8.13206
     2002.59823        -9.48057         8.69602
     2002.60096         7.49107         8.28210
     2002.60370         6.62470         8.40757
     2002.60644         6.17934         8.26917
     2002.60918         5.34797         8.36747
     2002.61191         5.28761         8.58995
     2002.61465         6.28824         8.67403
     2002.61739         7.62788         8.40757
     2002.62013        -0.90449         8.39852
     2002.62287         5.96116         8.45672
     2002.62560        -1.72522         8.38946
     2002.62834       -10.02158         8.58219
     2002.63108         2.00705         8.52140
     2002.63382         1.39969         8.37911
     2002.63656        -4.58067         8.23166
     2002.63929        -3.24304         8.43473
     2002.64203        -7.07740         8.54597
     2002.64477        -5.99277         8.56020
     2002.64751       -10.05413         8.84864
     2002.65024        -9.02350         8.70378
     2002.65298         9.35914         8.70895
     2002.65572         8.18777         8.59254
     2002.65846        -0.25559         8.41792
     2002.66120         2.34104         8.66627
     2002.66393        -8.14232         9.10217
     2002.66668         7.70933         8.68567
     2002.66941        -3.46105         8.54727
     2002.67215        -0.65241         8.69084
     2002.67488        13.76722         8.81760
     2002.67762        13.04384         8.65721
     2002.68036         2.44649         8.33772
     2002.68310        -7.94087         8.76457
     2002.68584        -1.69824         8.62229
     2002.68857         1.82740         8.96247
     2002.69131         4.40603         8.41663
     2002.69405         8.27867         8.18639
     2002.69679        10.44830         8.47354
     2002.69953        -3.38906         8.27564
     2002.70226         2.34757         8.45931
     2002.70500         1.16721         9.34275
     2002.70774         0.89584         8.56020
     2002.71048         9.87048         8.76328
     2002.71321         9.77412         8.54468
     2002.71595         8.99075         8.63781
     2002.71869         5.74239         8.97670
     2002.72143         9.50602         8.99739
     2002.72417         8.34066         8.57055
     2002.72690         5.70029         8.24330
     2002.72964         4.00193         8.88098
     2002.73238         1.86256         8.61065
     2002.73511        -0.27381         8.59900
     2002.73786         5.33285         8.94178
     2002.74059         5.16447         8.81113
     2002.74333        -8.91390         8.84606
     2002.74607        13.34774         8.95859
     2002.74881         8.76337         9.01162
     2002.75159        12.00913         9.43976
     2002.75428        -0.06235         9.76184
     2002.75702        13.03128         9.27161
     2002.75947         7.52423        10.35554
     2002.76247        -7.12052         9.64413
     2002.76523         8.67919         9.26902
     2002.76797        10.30982         9.56523
     2002.77070         1.17445        10.44738
     2002.77345        -2.61291         9.70104
     2002.77619         2.85273         9.79288
     2002.77892        -5.08364         9.99984
     2002.78166         4.30700         9.07888
     2002.78440         0.76163         9.38285
     2002.78714        -1.54873        10.47066
     2002.78974       -10.07343         9.97914
     2002.79333        -4.05572        13.32794
     2002.79534         6.49915         8.43215
     2002.79808        -4.10621         8.49682
     2002.80087         1.28556         8.65333
     2002.80355        -4.62094         8.52786
     2002.80629         6.83669         8.41274
     2002.80903         8.66633         8.65850
     2002.81132       -17.65213        53.08411
     2002.81556        -1.94784        18.43457
     2002.81724        -3.40076         8.95730
     2002.81964         9.61404        10.81472
     2002.82272        -6.19949         9.09699
     2002.82635        13.11730        19.76038
     2002.82820        10.79678         8.64945
     2002.83093         9.79341         8.61711
     2002.83367         2.48005         8.48001
     2002.83920         4.72046         8.51752
     2002.84188        10.43895         8.21872
     2002.84462         5.54359        11.42007
     2002.84736        -0.83678         8.18897
     2002.85010        20.25586         8.49294
     2002.85284        17.48650         8.84864
     2002.85459         9.11276        16.36243
     2002.85837         1.91190         8.28728
     2002.86105         5.81440         8.13982
     2002.86379         7.65604         8.93013
     2002.86653         0.02867         8.23166
     2002.86926         2.35131         7.96908
     2002.87200         2.50894         8.26270
     2002.87474         2.73258         8.72706
     2002.87753        -1.71265         8.30021
     2002.88021        -2.97815         8.15017
     2002.88295        -0.03652         8.12171
     2002.88569        -0.01788         8.19932
     2002.88843        10.23675         8.06997
     2002.89117         4.04839         8.09326
     2002.89390       -14.42797         8.17216
     2002.89670        -7.24220         8.17863
     2002.89938         6.78930         8.25753
     2002.90212         4.35993         8.23813
     2002.90485         5.59657         8.23295
     2002.90759         9.12920         8.39334
     2002.91033         7.03084         8.21614
     2002.91307         1.53647         7.89018
     2002.91586         0.90325         8.07256
     2002.91854         4.48274         8.19156
     2002.92056         5.88264        12.03705
     2002.92402         9.12301         8.75940
     2002.92676        -2.16535         8.21355
     2002.92950        10.88129         8.72059
     2002.93223         3.11692         7.95744
     2002.93503         3.24169         8.46060
     2002.93771         1.99919         8.31832
     2002.94045        24.38483         8.57055
     2002.94318        -3.84154         8.11525
     2002.94592         2.70210         8.28469
     2002.94866         4.76373         8.16957
     2002.95140        22.80337         8.56020
     2002.95381        -4.72678        10.51722
     2002.96467       -12.72946        12.46907
     2002.96899       -16.57801        73.89349
     2002.97068       -14.88390         8.51752
     2002.97336        -4.53241         8.15146
     2002.97604        -5.65591         8.12301
     2002.97878         8.21272         8.69472
     2002.98151        -0.28264         8.28210
     2002.98425        -5.90401         8.22131
     2002.98699         9.13763         8.46578
     2002.98973         8.24626         8.01694
     2002.99252        -5.22496         8.21226
     2002.99520        -0.47947         8.08550
     2002.99794        20.21617        18.24314
     2003.00342        -0.58256         8.62099
     2003.00616       -14.43293         8.68696
     2003.00889         5.91371         9.41260
     2003.01169        -6.44152         8.42309
     2003.01437         2.91398         8.17216
     2003.01711         2.18462         8.37006
     2003.01984         6.40325         7.87595
     2003.02258        -3.65811         8.17863
     2003.02532        -9.12348         8.22519
     2003.02806        -7.74384         8.24071
     2003.03085         3.61993         8.52269
     2003.03353        11.89543         8.21743
     2003.03627         2.45606         9.33499
     2003.03901        -2.26730         8.06092
     2003.04175       -11.80567         8.03246
     2003.04440        -8.37223         8.12818
     2003.05629        -2.59542        13.80652
     2003.05817         3.53315         8.46319
     2003.06091        -4.22222         8.13853
     2003.06365        -0.94258         8.13335
     2003.06639        -8.31295         8.25365
     2003.06918        -8.46417         8.42309
     2003.07186         5.40432         8.51234
     2003.07460        -0.55904         8.21484
     2003.07734         3.73359         8.30797
     2003.08008       -17.16077         8.37135
     2003.08282        -0.16314         8.14241
     2003.08555        17.32150         8.41145
     2003.08829        -1.72586         8.06351
     2003.09103         0.39977         8.38170
     2003.09377        11.41041         8.23425
     2003.09650         7.59904         8.04281
     2003.09878         9.88755        10.39434
     2003.10315        16.55216        22.99535
     2003.10472         1.65795         8.31703
     2003.10746        10.12458         8.19803
     2003.11019         4.32422         8.22907
     2003.11293         1.63285         8.38558
     2003.11567         7.22149         8.63910
     2003.11841         2.15512         8.41274
     2003.12115        -4.26224         8.02341
     2003.12388        -5.09960         8.16440
     2003.12662         0.94803         8.14241
     2003.12936        -1.07233         8.25753
     2003.13210        -7.59970         8.40240
     2003.13483        -0.74506         8.67144
     2003.13757         1.90657         8.09196
     2003.14020         1.07193         8.31315
     2003.14242        -6.00868        10.69572
     2003.14579         6.25148         8.00530
     2003.14852        -1.17389         8.02470
     2003.15126        -0.53525         8.04928
     2003.15400        -1.40362         7.88501
     2003.15674        -5.60898         8.02729
     2003.15948         6.58865         7.68193
     2003.16221        -3.17371         7.97814
     2003.16495         0.08793         8.07644
     2003.16769         6.49656         7.97684
     2003.17043        11.08720         7.98590
     2003.17316         1.31983         8.19803
     2003.17590         1.31047         7.76213
     2003.17864        -8.69790         8.05963
     2003.18138        -6.60126         8.25235
     2003.18412        -1.54363         7.83715
     2003.18685        -4.69699         8.12689
     2003.18959         1.75264         8.09196
     2003.19233       -10.83072         8.26529
     2003.19500         7.37574         9.16296
     2003.19781        -2.05244         8.36489
     2003.20054         5.57418         8.53045
     2003.20328        -5.11818         8.65074
     2003.20602        -7.11954         8.31315
     2003.20869        -0.10308         8.25235
     2003.21258       -17.16564        20.97236
     2003.21423        -5.03064         8.21484
     2003.21697        -1.21700         8.24459
     2003.21971        -5.02337         8.45414
     2003.22245       -12.40373         7.88889
     2003.22518        -3.41410         7.92511
     2003.22792        -2.75646         8.23295
     2003.23066         0.20317         8.20967
     2003.23340       -13.55419         8.50976
     2003.23613        -9.74756         8.06351
     2003.23887        -4.64192         8.15922
     2003.24161        -1.35128         7.89277
     2003.24435        -6.78565         8.01694
     2003.24709       -15.07201         8.65592
     2003.24982        -7.49638         8.24847
     2003.25256        -3.29774         8.33514
     2003.25530       -10.29811         8.41016
     2003.25804       -13.22647         8.00401
     2003.26078        -3.73884         7.86949
     2003.26351        -9.76920         8.01694
     2003.26625        -5.20657         7.97296
     2003.26899        -1.39293         8.19027
     2003.27178        -9.83816         9.84721
     2003.27446       -16.85666         8.10102
     2003.27720       -13.18603         7.95874
     2003.27994       -10.04939         7.86431
     2003.28268        -4.30175         7.83327
     2003.28542        -3.17312         7.85785
     2003.28815        -7.92448         7.81387
     2003.29089       -16.73385         8.02858
     2003.29363       -10.17821         8.03246
     2003.29637        -5.29658         7.87466
     2003.29911         2.94006         7.81645
     2003.30184        -2.08631         7.76472
     2003.30458         2.95133         7.92252
     2003.30732        -4.78304         7.82163
     2003.30909        -0.91475        16.89404
     2003.31422        44.28469       216.05000
     2003.31753         4.51071        11.78871
     2003.32375        -0.05122         7.70133
     2003.32648        -1.67759         8.01047
     2003.32922        -1.20795         8.19285
     2003.33190       -10.32746         8.16052
     2003.33470        -3.63968         7.54871
     2003.33744       -13.29205         7.82810
     2003.34017        -3.98441         7.78024
     2003.34291        -2.40778         7.69357
     2003.34565         0.68686         8.02600
     2003.34839         5.02049         8.21743
     2003.35112        -0.78987         7.98849
     2003.35386         0.58076         7.73238
     2003.35660         4.98240         7.82810
     2003.35881        -1.13425        10.41116
     2003.36208         7.45867         7.69875
     2003.36481        -2.72769         7.90182
     2003.36755        -6.57806         8.02082
     2003.37029         2.50758         7.84232
     2003.37303        -3.07079         7.77636
     2003.37577        -0.31915         7.73108
     2003.37850         1.08448         7.77506
     2003.38124        -6.69288         7.69745
     2003.38398        -5.46725         7.76342
     2003.38672       -17.56161         7.70392
     2003.38945        -3.58098         7.69487
     2003.39219        -8.61534         8.09584
     2003.39493        -0.69171         7.74014
     2003.39767         1.21193         7.72332
     2003.40041         2.13957         8.26270
     2003.40314        -1.25880         8.42439
     2003.40588        -6.47916         8.01824
     2003.40862        -1.70853         8.42827
     2003.41136         0.36711         7.72332
     2003.41410        -9.34626         7.80352
     2003.41683        -0.70562         8.09326
     2003.41957         7.77901         8.00271
     2003.42231        -1.65335         7.91734
     2003.42505        -3.56872         7.87207
     2003.42778        -1.04608         7.86561
     2003.43052        -2.58945         7.72591
     2003.43326        -5.79081         7.79188
     2003.43600        -3.54217         7.75049
     2003.43874       -14.09454         7.70780
     2003.44147        -1.90990         8.01824
     2003.44421        -4.61727         7.83068
     2003.44695        -2.26863         7.63407
     2003.44969        -3.19400         7.73108
     2003.45243        -9.81536         7.74273
     2003.45516        -5.79873         7.90958
     2003.45790        -4.20709         7.96262
     2003.46064       -12.18346         7.75178
     2003.46338        -4.89482         7.77765
     2003.46611         1.32881         7.63925
     2003.46885        -2.18255         7.80093
     2003.47159        -3.77092         7.71944
     2003.47433         9.62472         7.89148
     2003.47707         3.55936         7.99883
     2003.47980        -5.33801         8.22260
     2003.48254         2.29863         7.93675
     2003.48528         5.62926         7.86431
     2003.48802        -0.05010         7.86302
     2003.49076        -3.47547         7.77248
     2003.49349       -11.15283         7.79188
     2003.49623       -14.42920         8.05963
     2003.49897       -10.37756         7.85396
     2003.50171        -8.85393         7.87337
     2003.50444       -13.38029         7.97038
     2003.50718        -5.95466         7.65477
     2003.50992       -12.57102         7.88759
     2003.51266        -2.95638         7.87595
     2003.51540        -2.18675         8.03246
     2003.51813         2.05489         7.84362
     2003.52087         1.96452         7.86043
     2003.52361        -4.84884         8.01824
     2003.52635         1.56979         7.93933
     2003.52908        -7.37157         7.91864
     2003.53182       -10.01494         7.83974
     2003.53456       -12.46630        10.09297
     2003.53730       -15.47767         7.86173
     2003.54004        -3.10203         7.96779
     2003.54277        -8.83640         7.61855
     2003.54551        -9.63276         7.80223
     2003.54825       -10.03813         7.85914
     2003.55099        -1.27849         8.14500
     2003.55373       -16.34385         7.85785
     2003.55646        -8.56822         8.01436
     2003.55920        -1.26958         8.05187
     2003.56194         2.10705         8.14500
     2003.56468        -3.68031         7.94580
     2003.56741        -0.09968         7.68581
     2003.57015         4.36196         7.81257
     2003.57289        -3.11241         7.81387
     2003.57563         0.60523         7.78929
     2003.57837         4.53186         7.80481
     2003.58110         2.27650         8.22907
     2003.58384        -1.77087         7.77636
     2003.58658        -3.92523         8.22648
     2003.58932        -2.50560         7.92899
     2003.59206        -2.00696         7.79576
     2003.59479         1.41268         7.78153
     2003.59753         4.12931         7.74143
     2003.60027        -4.31405         7.86302
     2003.60301        -4.69642         7.67805
     2003.60574        -1.01978         7.66253
     2003.60848         3.26585         7.61726
     2003.61122        -3.53451         7.73755
     2003.61396        -5.26988         7.64313
     2003.61670        -3.36824         7.95098
     2003.61943        -5.70561         7.72591
     2003.62217        -1.68197         7.68323
     2003.62491         4.58866         7.59398
     2003.62765        -0.18270         7.96650
     2003.63039        -2.45606         7.72591
     2003.63312        -0.81143         7.75307
     2003.63586        -1.74479         7.67547
     2003.63860         8.74684         7.80611
     2003.64134         5.03448         7.65089
     2003.64407        -2.56989         7.59527
     2003.64681         0.58175         7.76472
     2003.64955        -8.13762         7.65994
     2003.65229        -5.29298         7.65606
     2003.65503        -8.42835         7.81128
     2003.65776       -12.36871         7.70522
     2003.66050        -1.75908         7.64830
     2003.66324        -0.94044         7.75307
     2003.66598         3.51219         7.72850
     2003.66872         1.27183         7.62114
     2003.67145         6.28747         7.92511
     2003.67419         1.62910         7.69875
     2003.67693         5.93074         7.75695
     2003.67967         5.87237         7.73626
     2003.68240         9.71301         7.70263
     2003.68514        -1.60936         7.80481
     2003.68788        -2.39472         7.93287
     2003.69062         4.68091         8.00659
     2003.69336         9.51455         7.82939
     2003.69609         7.18818         7.79576
     2003.69883         7.64882         7.64442
     2003.70157         7.04045         7.62631
     2003.70431         2.51709         7.90570
     2003.70705        -4.78128         7.75049
     2003.70978         6.57436         7.70910
     2003.71252         6.11500         7.64701
     2003.71526        -8.23637         7.94839
     2003.71800         1.54427         8.28469
     2003.72073         0.87790         7.75437
     2003.72347        -2.82546         7.77377
     2003.72621         1.23917         7.80093
     2003.72895        -4.24919         7.88371
     2003.73169       -13.92556         7.91476
     2003.73442        -1.86892         7.91864
     2003.73716        -4.60029         7.85396
     2003.73990        -1.53565         7.78929
     2003.74264        10.19098         8.30409
     2003.74538        -5.88638         8.05833
     2003.74811        -2.84974         7.98331
     2003.75085        -6.22911         7.91088
     2003.75359         6.80753         7.87854
     2003.75633         1.38916         7.83456
     2003.75906        -7.10720         7.86431
     2003.76180         5.30743         7.97684
     2003.76454         4.16907         8.43085
     2003.76728         5.62570         8.17475
     2003.77002         5.54834         7.75954
     2003.77275         4.28897         7.92123
     2003.77549         7.50161         7.97038
     2003.77823        -8.55476         8.02988
     2003.78097         6.55788         7.73108
     2003.78371         8.60651         7.77894
     2003.78644        -0.01985         7.94192
     2003.78918         3.30079         7.64184
     2003.79192        -3.01958         7.64701
     2003.79466        -1.24094         7.76860
     2003.79739         5.27069         8.11654
     2003.80008         2.14020         7.99754
     2003.80287        -0.72104         7.69099
     2003.80561         4.54360         8.38170
     2003.80835        -5.96477         8.02212
     2003.81108         2.77387         7.82421
     2003.81382         1.54350         7.61467
     2003.81656        -2.37586         7.61855
     2003.81930         9.84977         7.78670
     2003.82203         6.62341         7.91346
     2003.82477        -1.10095         8.82666
     2003.82751        -8.86732         8.53433
     2003.83025         3.78932         7.75307
     2003.83299         2.52995         7.62243
     2003.83572         1.80859         7.74014
     2003.83846         0.31322         8.12301
     2003.84120         3.56386         7.63278
     2003.84394         1.95149         7.57587
     2003.84668        -8.30187         7.72462
     2003.84941         1.54176         7.88242
     2003.85215        15.52340         7.96391
     2003.85489         3.52403         7.78800
     2003.85763         4.44167         7.89148
     2003.86036         4.03430         7.95744
     2003.86310         9.66694         7.74143
     2003.86584         4.84158         7.98590
     2003.86858        -2.11579         8.27305
     2003.87132         8.15585         8.06997
     2003.87405        -4.16352         7.77636
     2003.87679         4.79712         7.85655
     2003.87953         3.35275         7.75307
     2003.88227        -5.49861         7.68193
     2003.88501         5.11902         8.13206
     2003.88774         3.81966         8.08808
     2003.89048         5.91329         7.84103
     2003.89322         5.79193         7.65606
     2003.89596         4.92056         7.69228
     2003.89869        -7.68180         7.96779
     2003.90143       -14.24817         7.65994
     2003.90417         0.05447         7.81645
     2003.90691         9.17311         7.96262
     2003.90965        -3.69726         7.91993
     2003.91238         7.63838         7.83068
     2003.91512         2.75801         7.71427
     2003.91786       -12.38235         8.21872
     2003.92060        -9.73572         8.27434
     2003.92334        -2.69608         8.99481
     2003.92607        10.51155         8.38429
     2003.92881        -2.31981         7.89794
     2003.93155        -2.51518         8.01824
     2003.93429        -4.11954         8.09455
     2003.93702         6.68209         8.75163
     2003.93976         5.42173         7.90053
     2003.94250        11.50837         8.03246
     2003.94524        -8.84600         7.68711
     2003.94792        -1.88749         8.44767
     2003.95077        -4.25459         8.70119
     2003.95345        -3.48909         7.74919
     2003.95619       -11.92046         8.10619
     2003.95893        -0.01382         7.94451
     2003.96167         1.61881         8.05963
     2003.96440         2.39545         8.71800
     2003.96714        -5.42093         8.00401
     2003.96994         4.44986         8.15664
     2003.97262        -1.11365         7.76730
     2003.97535       -15.14701         7.91864
     2003.97809       -11.98638         8.31444
     2003.98083        -8.53374         7.76989
     2003.98357        -3.06110         7.77377
     2003.98631       -17.09747         7.63925
     2003.98904       -11.12483         7.83974
     2003.99178         0.60880         8.48259
     2003.99452        -5.59056         7.89148
     2003.99726        -8.11893         7.67417
     2004.00273       -18.98566         7.92640
     2004.00547       -18.92002         7.76989
     2004.00821       -19.27639         7.66512
     2004.01095       -21.97575         7.82810
     2004.01368        -1.40312         8.39205
     2004.01642        -4.37348         7.81128
     2004.01916       -10.01284         8.04540
     2004.02190        18.53079         8.34807
     2004.02464        -6.12357         7.68064
     2004.02737        -6.10994         8.27046
     2004.03011        -5.51730         8.07903
     2004.03285       -18.23767         7.76083
     2004.03559       -13.86403         7.91476
     2004.03833        -5.11240         7.71944
     2004.04106       -15.23876         8.21743
     2004.04380       -17.90713         8.02470
     2004.04654        -1.45949         7.84879
     2004.04928        -3.68386         7.67029
     2004.05201       -23.75122         7.87983
     2004.05475        -2.85459         7.86043
     2004.05749       -12.40295         7.91346
     2004.06023        -8.05831         8.06092
     2004.06297        -2.83668         7.75825
     2004.06570        -8.71604         8.00142
     2004.06844        -0.06541         7.80740
     2004.07118       -10.42877         7.90829
     2004.07392        -7.14814         8.14500
     2004.07666        -1.70550         7.91864
     2004.07939        -9.75287         7.98072
     2004.08213        -6.07923         7.94063
     2004.08487        -8.50760         8.07127
     2004.08761        -7.81296         8.04669
     2004.09034         4.84967         8.01824
     2004.09308        -1.88669         7.97555
     2004.09582        -2.47806         7.83198
     2004.09856        -1.36542         7.96650
     2004.10130        -7.31478         8.00013
     2004.10403         1.52085         7.70133
     2004.10677         7.77549         7.82551
     2004.10951         2.04712         7.78541
     2004.11225         0.79876         7.67805
     2004.11498        -2.23761         8.02082
     2004.11772         2.78603         8.38299
     2004.12046        -1.45634         7.75049
     2004.12320        -3.25870         8.27564
     2004.12570        36.52337        12.98776
     2004.12867         3.24057         7.80481
     2004.13141       -10.31880         7.79058
     2004.13415       -11.49516         7.81387
     2004.13689        -3.76052         7.71686
     2004.13963        -3.68889         7.97296
     2004.14236        -4.82525         7.83974
     2004.14510        -6.79362         7.95744
     2004.14784         1.18202         8.19285
     2004.15058        17.70765         9.62343
     2004.15331        -0.35871         8.22519
     2004.15605         2.84992         8.11654
     2004.15879        -9.06844         7.84362
     2004.16153        -3.00981         8.14241
     2004.16427        -5.09417         8.22390
     2004.16700         6.76246         8.12301
     2004.16974        -9.43190         8.40757
     2004.17248       -11.25227         8.16699
     2004.17522        -3.87963         8.23554
     2004.17796        -4.32699         7.89148
     2004.18069        -7.27336         8.20708
     2004.18343       -12.87072         8.06609
     2004.18617        -9.20109         8.54985
     2004.18891        -2.50845         7.96520
     2004.19164        -0.64582         8.00271
     2004.19438        -0.47218         7.88242
     2004.19712        -9.29155         7.89794
     2004.19986        -8.30691         8.11913
     2004.20260        -3.47328         8.02082
     2004.20533        -0.23464         7.90312
     2004.20807        -3.57801         8.42180
     2004.21081         1.70363         8.56925
     2004.21355       -14.62674         8.15017
     2004.21629       -10.46310         8.26012
     2004.21902       -10.14246         8.27564
     2004.22176         4.41217         8.16569
     2004.22450         2.65081         8.52916
     2004.22724        -4.69656         8.15276
     2004.22997        -7.92192         8.03376
     2004.23271        -5.81029         8.05833
     2004.23545        -2.21665         7.90958
     2004.23819        -6.87002         8.10360
     2004.24093       -13.46238         8.20579
     2004.24366        -5.31675         8.52786
     2004.24640        -4.68111         7.75178
     2004.24914         0.22152         8.07385
     2004.25188        -1.59184         7.73885
     2004.25462        -7.10720         7.89536
     2004.25735        -4.40357         7.82033
     2004.26009       -13.24593         7.77377
     2004.26283        -6.33030         7.76730
     2004.26557         1.13434         8.02341
     2004.26830       -14.94103         7.91605
     2004.27104       -15.30339         7.81128
     2004.27378         0.33124         7.87466
     2004.27652        -5.81012         7.83198
     2004.27926        -9.84749         8.02988
     2004.28199       -14.88385         8.07256
     2004.28473       -15.77422         8.03893
     2004.28747        -6.26358         8.03376
     2004.29021         5.38305         7.83068
     2004.29295        -4.91931         7.69745
     2004.29568        -4.30267         7.92769
     2004.29842       -12.31704         7.90700
     2004.30116        -3.89840         7.89794
     2004.30390         5.00623         7.95356
     2004.30663        -2.29513         7.79188
     2004.30937         4.07450         8.08291
     2004.31211       -10.78386         7.92252
     2004.31485        -2.93223         7.82421
     2004.31759         0.44441         7.88630
     2004.32038        10.74918         8.71024
     2004.32306        11.04168         7.90829
     2004.32580        -0.51469         7.74273
     2004.32854        -6.62005         7.78024
     2004.33133         2.82872         8.05445
     2004.33401         7.81622         8.06739
     2004.33675         1.44386         8.00271
     2004.33949         7.12349         8.21096
     2004.34223         5.30313         8.19415
     2004.34496         3.40176         7.89665
     2004.34770       -10.78260         7.92769
     2004.35044        -4.58597         7.95486
     2004.35318         1.84467         7.81128
     2004.35592        15.42330         7.84879
     2004.35865         2.04394         7.90053
     2004.36139        -1.00443         7.76213
     2004.36413        -0.07579         7.81128
     2004.36687        13.08984         8.02600
     2004.36961         9.58248         7.91993
     2004.37234         2.47112         7.62502
     2004.37508        -7.19525         7.62502
     2004.37782        -2.22261         7.82551
     2004.38056        -4.33298         7.68581
     2004.38329        -0.84234         7.81257
     2004.38603         3.76029         7.89148
     2004.38877        -3.18207         7.73367
     2004.39151        -0.73344         7.69228
     2004.39425         1.06420         7.68452
     2004.39698         4.57183         8.05187
     2004.39972         9.12447         7.76601
     2004.40246       -16.69890         8.00401
     2004.40520        -2.95526         7.88501
     2004.40794         1.49937         7.57587
     2004.41067        -0.02099         7.58492
     2004.41341        -2.98235         7.68840
     2004.41615         3.53328         7.75825
     2004.41889       -11.57708         7.68711
     2004.42162        -5.60945         7.59268
     2004.42436        -1.77981         7.68193
     2004.42710        -1.53918         7.77765
     2004.42984         4.54646         7.73108
     2004.43258         1.44709         7.67805
     2004.43531        -4.52227         7.71815
     2004.43805         5.76236         7.67805
     2004.44079        -6.62500         7.54224
     2004.44353         0.74763         7.75695
     2004.44626        -0.05573         7.74143
     2004.44900        -0.46009         7.85785
     2004.45174        -9.06846         8.01306
     2004.45448        -3.38182         7.99366
     2004.45722        -3.62619         8.39205
     2004.45995        -9.67355         7.77377
     2004.46269       -16.81892         7.78670
     2004.46543       -10.89328         7.63149
     2004.46817        -6.21765         7.64054
     2004.47091        -9.33101         7.78282
     2004.47364        -4.27038         7.69616
     2004.47638        -9.38974         7.67547
     2004.47912        -6.85811         7.66124
     2004.48186         0.95653         8.28986
     2004.48459        -5.01284         7.81128
     2004.48733        -3.12820         7.94968
     2004.49007        -4.61756         7.80352
     2004.49281       -12.34093         8.01047
     2004.49555        -9.69329         7.94839
     2004.49828        -2.82366         7.85138
     2004.50102        -6.33002         7.91476
     2004.50376       -13.05939         7.83586
     2004.50650       -16.25575         7.78412
     2004.50924        -4.78612         7.81257
     2004.51197        -9.64048         7.77506
     2004.51471        -6.97285         7.92252
     2004.51745        -1.87421         7.68711
     2004.52019        -5.80158         7.83456
     2004.52292        -6.69094         7.78670
     2004.52566        -8.80930         7.73367
     2004.52840        -9.87867         7.65736
     2004.53114       -12.48103         8.13077
     2004.53388        -5.35140         7.75437
     2004.53661         3.86724         7.76989
     2004.53935         8.44187         8.09326
     2004.54209         5.14851         8.22390
     2004.54483        -8.57186         7.83327
     2004.54757       -13.56622         8.00789
     2004.55030        -2.26359         7.84362
     2004.55304        -9.11695         8.15276
     2004.55578        -1.95332         7.85526
     2004.55852        -7.17168         7.73626
     2004.56125        -7.48605         7.62373
     2004.56399        -3.84541         7.79705
     2004.56673         1.27923         7.75695
     2004.56947        -7.36914         7.62631
     2004.57221        -6.01050         7.56811
     2004.57494        -4.59687         7.65736
     2004.57768        -1.88123         7.70392
     2004.58042        -4.89460         7.75566
     2004.58316        -3.16896         7.68711
     2004.58590         3.69767         7.67676
     2004.58863         4.42131         7.99107
     2004.59137        -3.71406         7.75825
     2004.59411         3.62558         7.76989
     2004.59685        -0.12479         7.96520
     2004.59958         4.44785         7.93804
     2004.60232         5.72548         7.78153
     2004.60506        -0.47488         7.67159
     2004.60780        -1.43924         7.75178
     2004.61005         3.90622         9.49667
     2004.62531         7.53219        17.74903
     2004.62696         1.21120         7.87207
     2004.62970        -8.16216         8.33126
     2004.63244         1.66447         7.83715
     2004.63518        -7.99889         7.71815
     2004.63791        -2.51926         7.61338
     2004.64065         0.68438         8.31832
     2004.64339         2.68902         7.69357
     2004.64613         1.38065         7.95098
     2004.64887         0.19329         7.67935
     2004.65160         6.39192         7.74790
     2004.65434        -1.48844         7.72203
     2004.65708         6.46019         8.00271
     2004.65982         4.91583         7.83456
     2004.66256        -3.65554         7.67935
     2004.66529        -0.05590         7.87983
     2004.66803         3.00873         7.70133
     2004.67077        10.07037         7.93416
     2004.67351        21.85800         7.75049
     2004.67624        11.04664         7.68064
     2004.67898         9.43327         7.72203
     2004.68172        16.90591         8.52010
     2004.68446         3.85055         7.79576
     2004.68720         7.39418         7.79188
     2004.68993        -8.91518         7.79835
     2004.69267         6.28545         7.82551
     2004.69541        -2.10791         7.68840
     2004.69815         1.94272         8.03764
     2004.70089         6.23936         7.79705
     2004.70362        13.23399         7.62890
     2004.70636         5.19463         7.73755
     2004.70910         3.33326         7.71815
     2004.71184        15.10290         7.83198
     2004.71457         1.85553         7.67547
     2004.71731         5.18217         7.52542
     2004.72005         6.88080         7.65865
     2004.72279         5.04744         7.65736
     2004.72553         0.92908         7.59786
     2004.72826        12.33971         7.92899
     2004.73100         0.25235         7.67935
     2004.73374        -0.95802         7.55776
     2004.73648        -3.37838         7.76860
     2004.73921         6.76825         7.72074
     2004.74195         5.08989         7.84232
     2004.74469        -7.05248         7.50731
     2004.74743        -1.21584         7.50343
     2004.75017        -1.80321         7.44393
     2004.75290         1.87843         7.58492
     2004.75564        -2.91294         7.62373
     2004.75838        -2.54830         7.49179
     2004.76112         2.04934         7.63278
     2004.76386         6.71997         7.90958
     2004.76659         2.29861         7.68452
     2004.76933         8.17424         8.04669
     2004.77207         4.57588         7.85526
     2004.77481        16.90551         7.74143
     2004.77754         8.72715         7.72850
     2004.78028         2.99678         7.80223
     2004.78302         8.96142         7.89277
     2004.78576         5.87505         7.58751
     2004.78850         7.35369         7.83844
     2004.79123         7.81032         7.78800
     2004.79397        12.71696         8.05833
     2004.79671         8.11559         7.57069
     2004.79945         7.26523         7.95874
     2004.80219        11.24687         7.82939
     2004.80492         9.36850         7.70004
     2004.80766         9.12214         7.73367
     2004.81040         6.52077         7.67935
     2004.81314         2.51641         7.46463
     2004.81587        10.68004         7.63149
     2004.81861         5.10368         8.33643
     2004.82135         9.82631         7.93287
     2004.82409        10.53795         7.79835
     2004.82683        -3.17342         7.52413
     2004.82956        22.11622         8.32091
     2004.83230        14.33885         7.67676
     2004.83504         6.66449         7.72720
     2004.83778         8.01113         7.73108
     2004.84052        10.48676         8.09584
     2004.84325        18.21740         7.59915
     2004.84599        13.41703         7.60820
     2004.84873         6.34267         7.52025
     2004.85147        -3.23870         7.89536
     2004.85420        -1.02506         8.21743
     2004.85694        -2.92843         7.97684
     2004.85968        -1.90879         7.83327
     2004.86242         2.91584         7.60820
     2004.86516         5.66248         7.64442
     2004.86789        -6.03289         7.99237
     2004.87063        -0.34625         7.67159
     2004.87337         0.91038         7.66770
     2004.87611        -0.69098         7.78153
     2004.87885         4.32266         7.51507
     2004.88158         0.15629         7.91864
     2004.88432         7.13893         7.78282
     2004.88706         6.94256         7.46334
     2004.88980        10.49020         7.68193
     2004.89253         7.93683         7.63666
     2004.89527         0.04147         7.73497
     2004.89801        -3.18490         8.09067
     2004.90075        13.41574         8.14888
     2004.90349        -1.74463         7.78153
     2004.90622         4.77201         7.81128
     2004.90896         7.03764         7.52542
     2004.91170         0.16728         7.44393
     2004.91444        -4.86709         7.58234
     2004.91718        -0.58045         7.80481
     2004.91991         4.04919         7.76472
     2004.92265        -0.99418         7.59139
     2004.92539         4.45246         7.73885
     2004.92813         0.26109         7.47756
     2004.93086         7.68273         7.73497
     2004.93360         4.03136         7.87854
     2004.93634         3.07000         7.50214
     2004.93908         0.59663         7.58622
     2004.94182        -0.22373         8.04540
     2004.94455         2.44190         7.74402
     2004.94729        -0.89946         7.86173
     2004.95003        -4.52583         7.82163
     2004.95277         3.78781         7.88501
     2004.95551        -2.74555         7.44005
     2004.95824        -0.20692         7.80352
     2004.96098         0.56472         7.45946
     2004.96372        -3.92565         7.57069
     2004.96646        -7.66401         7.50861
     2004.96919        -3.40038         7.86302
     2004.97193         1.32326         7.67547
     2004.97467         0.76389         7.69487
     2004.97741        -5.05847         7.48015
     2004.98015         1.82116         7.50731
     2004.98288        -2.51420         7.58751
     2004.98562        -3.82057         7.71039
     2004.98836        -2.17093         7.80611
     2004.99110        -5.00930         7.69875
     2004.99384        -8.23166         7.83456
     2004.99657        -6.10102         7.87725
     2004.99931        -7.43639         7.88889
     2005.00479       -15.12712         7.79317
     2005.00752       -10.11848         7.65089
     2005.01026       -11.83485         7.83327
     2005.01300        -8.49421         7.87466
     2005.01574        -4.33058         8.13335
     2005.01848        -3.21994         7.79446
     2005.02121       -17.85131         8.19156
     2005.02395       -22.03067         9.39449
     2005.02669       -18.93904         7.78929
     2005.02943        -5.49240         7.73885
     2005.03216       -10.83176         7.62890
     2005.03490        -5.55113         8.13853
     2005.03764         1.89551         7.88630
     2005.04038        -6.22286         8.03246
     2005.04312        -7.37722         7.99625
     2005.04585        -9.58859         7.95227
     2005.04859        -7.97395         8.15534
     2005.05133        -6.78232         7.88113
     2005.05407        -4.93368         8.01565
     2005.05681        -9.68605         7.83327
     2005.05954        -6.00241         7.98719
     2005.06228        -4.90378         7.94580
     2005.06502       -10.92414         8.02729
     2005.06776        -4.52951         9.18365
     2005.07049       -19.03487         8.06092
     2005.07323        -5.61823         7.85396
     2005.07597        -1.25160         8.06221
     2005.07871        -5.17996         7.58363
     2005.08145        -5.56633         7.38702
     2005.08418         0.21931         7.90958
     2005.08692        -5.81406         7.59139
     2005.08966       -10.82542         7.35986
     2005.09240        -9.46379         7.43488
     2005.09503        -7.77842         8.07515
     2005.10061       -13.33788         7.39866
     2005.10335        -6.23725         7.32623
     2005.10609        -2.06061         7.47627
     2005.10882         0.36002         7.49438
     2005.11156         0.67666         7.54094
     2005.11430        -3.00370         7.67159
     2005.11704        -6.50107         7.58751
     2005.11978        -6.54643         7.49567
     2005.12251       -10.48080         7.48662
     2005.12525        -3.35416         7.71556
     2005.12799        -5.44553         7.93545
     2005.13073        -4.50989         7.77636
     2005.13347       -10.16326         7.89148
     2005.13620       -13.80162         7.43229
     2005.13894        -8.22399         7.69357
     2005.14168        -8.78935         7.66382
     2005.14442        -8.77172         7.52413
     2005.14715       -16.00408         7.57975
     2005.14989       -25.75444         7.46592
     2005.15263       -15.51681         7.62631
     2005.15537        -6.16417         7.68064
     2005.15811       -12.72454         7.74531
     2005.16084       -16.11090         7.85785
     2005.16358       -10.99227         7.74531
     2005.16632       -10.10063         7.78412
     2005.16906        -7.83500         7.53318
     2005.17180       -13.25536         7.74531
     2005.17453       -17.77973         7.53706
     2005.17727       -12.07909         7.82939
     2005.18001       -13.58646         7.74014
     2005.18275       -11.50482         7.53706
     2005.18548        -7.65519         7.93804
     2005.18822       -13.27555         7.87337
     2005.19096       -11.96991         7.59139
     2005.19370        -5.75928         7.65606
     2005.19644       -15.14064         7.66512
     2005.19917        -7.26201         7.56940
     2005.20191        -9.09537         7.91346
     2005.20465        -6.31074         7.53060
     2005.20739        -9.12710         7.64442
     2005.21013        -8.79647         7.64701
     2005.21286       -21.81983         7.81387
     2005.21560        -6.37520         7.96003
     2005.21834        -5.43356         8.04799
     2005.22108       -15.92993         7.79705
     2005.22381         1.07471         7.91734
     2005.22655        -7.66666         7.69357
     2005.22929        -5.63302         7.71039
     2005.23116       -12.19448        12.82607
     2005.24024        -2.45748         7.90570
     2005.24298        -6.01084         7.66124
     2005.24572        -3.50321         7.73885
     2005.24846        -5.47757         7.62502
     2005.25119        -6.52394         7.53318
     2005.25393        -4.44730         8.09067
     2005.25667        -8.86867         8.19803
     2005.25941        -0.30403         7.82939
     2005.26214        -8.30140         8.44249
     2005.26488         1.78324         8.16957
     2005.26762        -8.90312         7.88501
     2005.27036        -9.71449         7.68064
     2005.27310        -3.30785         7.85267
     2005.27583        -4.02222         7.74402
     2005.27857        -5.47758         7.73755
     2005.28131        -0.71395         8.03893
     2005.28405       -14.10731         8.03246
     2005.28679        -9.61168         7.91734
     2005.28952        -4.58504         7.91734
     2005.29226        -3.04441         7.82033
     2005.29500         1.65323         7.58880
     2005.29774        11.64986         7.90053
     2005.30047       -10.44150         7.57587
     2005.30321        -4.10887         8.33643
     2005.30595         0.49577         7.53448
     2005.30869         1.41041         7.94451
     2005.31143        -1.84796         7.52025
     2005.31416        -1.33732         7.63019
     2005.31690        -5.94169         7.54871
     2005.31964         4.49395         7.78800
     2005.32238         3.13758         8.02988
     2005.32512         1.47122         7.63407
     2005.32785        -4.65615         7.55647
     2005.33059         0.12449         7.65865
     2005.33333         1.38112         7.62114
     2005.33607         8.75476         7.78153
     2005.33880        -5.78761         7.86819
     2005.34154        -5.07097         7.56940
     2005.34428        -8.91133         7.54612
     2005.34702        -3.61270         7.60044
     2005.34976        -7.98006         7.91993
     2005.35249        -5.51543         7.79058
     2005.35523       -11.73379         7.83198
     2005.35797        -5.04916         7.78670
     2005.36071       -15.94052         7.81645
     2005.36344        -7.04289         7.92252
     2005.36618         8.02875         7.68711
     2005.36892        -0.29662         8.04152
     2005.37166         6.29902         7.74014
     2005.37440        -1.27735         7.90958
     2005.37713         4.46029         8.47483
     2005.37987        -3.40508         7.76342
     2005.38261         1.60756         7.70392
     2005.38535        -5.10980         7.78024
     2005.38809        -9.88417         7.58880
     2005.39082        -7.99753         7.59139
     2005.39356       -16.33090         7.55647
     2005.39630        -5.58326         7.59656
     2005.39904        -6.59163         7.46851
     2005.40177       -12.27699         7.49697
     2005.40451        -6.77036         7.43617
     2005.40725        -6.70172         7.70522
     2005.40999       -12.06409         7.67805
     2005.41273       -14.42045         7.48791
     2005.41546        -1.76982         7.53318
     2005.41820         2.99582         7.69745
     2005.42094        -9.42355         7.62373
     2005.42368        -9.02791         7.54741
     2005.42642        -8.48827         7.55905
     2005.42915        -6.31464         7.48662
     2005.43189         0.04200         7.50602
     2005.43463        -6.72837         7.55259
     2005.43737        -6.32873         7.72332
     2005.44010       -18.50710         7.62761
     2005.44284        -4.87946         7.57587
     2005.44558        -2.21583         7.69228
     2005.44832       -12.37919         7.79446
     2005.45106        -8.37656         7.69228
     2005.45379        -7.58292         7.56681
     2005.45653        -4.82929         7.89018
     2005.45927        -2.58965         7.70263
     2005.46201        -1.79401         7.54482
     2005.46475        -9.31038         7.42453
     2005.46748        -2.35574         7.50861
     2005.47022        -7.41011         7.50602
     2005.47296       -12.46747         7.52025
     2005.47570        -6.87884         7.53318
     2005.47843       -14.84620         7.65865
     2005.48117       -12.10057         7.77248
     2005.48391       -15.26193         7.66641
     2005.48665        -6.98130         7.55647
     2005.48939       -19.11166         7.43747
     2005.49212        -9.71603         7.42971
     2005.49486       -15.21039         7.43100
     2005.49760       -16.10276         7.44781
     2005.50034       -11.76812         7.44911
     2005.50308       -11.30048         7.42712
     2005.50581       -13.43485         7.38831
     2005.50855       -12.05821         7.42453
     2005.51129        -8.92758         7.93804
     2005.51403       -12.77794         7.49826
     2005.51676        -4.55831         7.48662
     2005.51950        -9.50967         7.65089
     2005.52224        -8.05204         7.69099
     2005.52498        -5.33140         7.60044
     2005.52772       -13.85077         7.49438
     2005.53045       -16.66213         7.97814
     2005.53319        -3.85550         7.89406
     2005.53593       -11.38786         7.49309
     2005.53867        -3.91122         7.58622
     2005.54141        -5.34059         7.43747
     2005.54414        -3.67195         7.39608
     2005.54688        -0.55932         7.42324
     2005.54962        -6.60168         7.40901
     2005.55236        -4.22405         7.82421
     2005.55509        -4.61141         7.49179
     2005.55783       -17.39678         7.44911
     2005.56057        -6.54714         7.62243
     2005.56331       -11.24551         7.65865
     2005.56605        -7.04887         8.10619
     2005.56878        -2.48424         8.71024
     2005.57152       -10.04560         7.97038
     2005.57426        -1.86097         7.53965
     2005.57700        -7.61733         7.42841
     2005.57974       -15.54769         7.49955
     2005.58247       -12.15406         7.37409
     2005.58521        -6.42642         7.55129
     2005.58795        -2.08879         7.42841
     2005.59069        -4.84315         7.50343
     2005.59342        -5.85052         7.41160
     2005.59616       -12.75188         7.43100
     2005.59890        -9.60925         7.56811
     2005.60164        -5.87161         7.41289
     2005.60438       -13.48398         7.42065
     2005.60711       -12.74834         7.51637
     2005.60985        -1.20771         7.77636
     2005.61259        -4.07807         7.70263
     2005.61533       -11.48644         7.59268
     2005.61807        -9.48080         7.44264
     2005.62080        -8.63916         7.52672
     2005.62354       -15.08153         7.74402
     2005.62628       -10.32389         7.63795
     2005.62902        -7.61526         7.88501
     2005.63175        -7.90562         7.48144
     2005.63449        -4.92399         7.54741
     2005.63723        -9.53735         7.77377
     2005.63997       -11.80072         7.53060
     2005.64271        -1.29208         7.71944
     2005.64544       -11.72645         7.64960
     2005.64818        -5.69581         7.53448
     2005.65092        -0.26418         7.59786
     2005.65366        -9.22354         7.72850
     2005.65639       -14.23390         7.58104
     2005.65913        -4.84327         7.55259
     2005.66187         2.44037         7.44135
     2005.66461        -2.78600         7.51378
     2005.66735        -8.29736         7.85396
     2005.67008       -12.37273         7.47756
     2005.67282       -11.83109         7.55776
     2005.67556        -2.41446         7.72332
     2005.67830       -13.18282         7.41806
     2005.68104       -11.65119         7.64701
     2005.68377        -8.12055         7.74919
     2005.68651       -11.90792         7.85267
     2005.68925        -4.53528         7.78541
     2005.69199        -6.17265         7.62502
     2005.69472        -0.56201         7.74919
     2005.69746        -7.47337         7.74273
     2005.70020        -9.53774         7.64184
     2005.70294        -7.42710         7.59527
     2005.70568       -11.87847         7.65865
     2005.70841        -8.58683         7.85267
     2005.71115       -12.51920         7.56552
     2005.71389        -8.56456         7.41030
     2005.71663        -8.60493         7.58234
     2005.71937         2.20971         7.40384
     2005.72210        -5.43766         7.67935
     2005.72484        -9.07202         7.53189
     2005.72758        -1.75539         7.73238
     2005.73032        -4.96775         7.65606
     2005.73305         9.70789         7.53448
     2005.73579         2.36752         7.55388
     2005.73853        -1.64784         7.65865
     2005.74127         2.18279         7.71556
     2005.74401        -1.14057         7.52154
     2005.74674        -6.87894         7.65994
     2005.74948        -1.23130         7.57846
     2005.75222        -1.53967         7.64960
     2005.75496       -12.45403         7.65994
     2005.75770        -2.72840         7.57975
     2005.76043         2.27224         7.37021
     2005.76317        -8.58713         7.33916
     2005.76591        -1.75749         7.76083
     2005.76865        -1.54486         7.50602
     2005.77138         0.47078         7.46592
     2005.77412         3.72442         7.27966
     2005.77686        -2.36495         7.58363
     2005.77960        -6.86131         7.42841
     2005.78234        15.50232         7.82680
     2005.78507         5.77896         7.65089
     2005.78781        -2.42241         7.92640
     2005.79055         9.55123         7.63149
     2005.79329        10.36486         7.87983
     2005.79603        13.26650         7.68840
     2005.79876         4.32113         7.98719
     2005.80150         3.31677         7.69745
     2005.80424         0.12640         7.50602
     2005.80698        -1.56096         7.56681
     2005.80971         3.62667         7.44781
     2005.81245        -3.31469         7.38443
     2005.81519        -2.07705         7.77636
     2005.81793        -0.94342         7.86043
     2005.82067        -5.03278         7.42453
     2005.82340        -2.81515         7.67029
     2005.82614        10.00749         7.44393
     2005.82888         6.28512         7.43229
     2005.83162         0.81076         7.70910
     2005.83436       -10.50361         7.80740
     2005.83709       -14.27497         8.27952
     2005.83983         2.34566         8.04411
     2005.84257         1.31930         8.04669
     2005.84531        -2.20007         7.68969
     2005.84804         5.96457         8.09196
     2005.85078        -7.49479         8.00271
     2005.85352        -4.88416         7.85785
     2005.85626        -1.19352         7.63019
     2005.85900        -9.57189         7.57846
     2005.86173       -14.62525         7.87854
     2005.86447        -1.90962         7.75695
     2005.86721        -3.62598         7.51766
     2005.86995        -4.60735         7.79446
     2005.87269        -6.50971         7.72203
     2005.87542        -6.33508         7.52413
     2005.87816        -6.45944         7.57716
     2005.88090        -5.64781         7.38443
     2005.88364        -2.27317         7.39996
     2005.88637        -2.75054         7.68452
     2005.88911        -6.04590         8.01824
     2005.89185        -2.31526         7.74143
     2005.89459       -14.11063         7.80093
     2005.89733        -7.11099         8.15534
     2005.90006        -5.05036         7.81645
     2005.90280       -11.75672         7.85008
     2005.90554       -12.78809         7.57975
     2005.90818       -13.70468         8.15276
     2005.91119        -8.02040         8.27305
     2005.91375        -8.85318         7.55259
     2005.91649       -11.31455         9.26773
     2005.91923       -12.54591         7.68064
     2005.92197        -9.31728         7.51896
     2005.92470       -11.23564         7.34434
     2005.92744       -14.32901         7.55129
     2005.93018       -10.77637         7.55129
     2005.93292        -9.73373         7.74531
     2005.93566       -12.26410         7.45040
     2005.93839        -9.98246         7.44393
     2005.94113         0.70617         7.63666
     2005.94387        -7.31319         7.53577
     2005.94661        -8.79056         7.50731
     2005.94935        -9.84992         7.58104
     2005.95208       -15.59129         7.49179
     2005.95482       -11.60665         7.84103
     2005.95756        -9.50402         7.63149
     2005.96030         4.35362         7.87854
     2005.96303        -7.59175         7.99883
     2005.96577        -8.35311         8.23813
     2005.96851         3.88053         8.73999
     2005.97125       -12.59384         7.88242
     2005.97399         8.80680         7.96262
     2005.97672       -15.44557         7.79058
     2005.97946       -18.21593         7.76213
     2005.98220        -7.71130         8.13724
     2005.98494        -1.74166         7.95615
     2005.98767       -16.45703         7.86949
     2005.99041        -2.31139         8.11913
     2005.99315       -10.69176         7.91993
     2005.99589        -5.98812         7.78800
     2005.99863         7.91251         8.22648
     2006.00410         7.02678         8.09067
     2006.00684       -13.70358         8.51234
     2006.00958       -22.36694         8.09196
     2006.01232        -4.67031         7.74014
     2006.01505       -16.04967         8.15534
     2006.01779        -6.69504         7.96262
     2006.02053         0.28460         8.01306
     2006.02327        -2.06977         7.79446
     2006.02600        -8.57413         7.90570
     2006.02874        -6.85450         7.87337
     2006.03148        -2.90086         7.68581
     2006.03422         2.42877         7.87078
     2006.03696        -4.93159         7.75566
     2006.03969       -10.07396         7.75954
     2006.04243        -5.95432         7.90053
     2006.04517        -9.84368         7.78541
     2006.04791        -6.22805         7.79058
     2006.05065       -10.65241         7.78412
     2006.05338        -8.14978         7.88630
     2006.05612        -7.06114         7.53706
     2006.05886       -11.29551         7.66253
     2006.06160       -10.82387         7.52801
     2006.06433         4.95576         7.64960
     2006.06707        -1.19460         7.55259
     2006.06981       -19.33797         7.37279
     2006.07255       -17.59433         7.43617
     2006.07529       -11.28270         7.76213
     2006.07802       -16.91306         7.67935
     2006.08076        -4.84143         7.90570
     2006.08350       -13.43779         7.39996
     2006.08624        -4.06515         7.52025
     2006.08898        -0.33052         7.62373
     2006.09171       -20.50688         7.48403
     2006.09445        -2.88725         7.83715
     2006.09719       -10.21461         7.39349
     2006.09993       -10.12498         7.32493
     2006.10266       -12.64534         7.32105
     2006.10540        -7.09971         7.48921
     2006.10814        -3.44407         7.67676
     2006.11088       -15.16944         7.67288
     2006.11362       -20.79680         7.50861
     2006.11635       -24.33617         7.50861
     2006.11909       -13.31253         7.39866
     2006.12183        -3.73290         7.87337
     2006.12457       -10.82126         7.57716
     2006.12731       -15.32062         7.50731
     2006.13004       -10.69999         7.44911
     2006.13278       -12.47135         7.41677
     2006.13552       -14.58572         7.56035
     2006.13826        -3.71608         7.65089
     2006.14099        -4.04945         7.71298
     2006.14373        -2.72081         7.56293
     2006.14647        -5.83318         7.38185
     2006.14921       -12.57454         7.42324
     2006.15195        -9.67091         7.54612
     2006.15468       -15.55827         7.73626
     2006.15742         2.31636         8.04799
     2006.16016         2.26400         8.08420
     2006.16290       -17.98236         8.07515
     2006.16438        11.48823        26.73220
     2006.20397       -17.50083         7.82292
     2006.20670       -23.56720         7.87466
     2006.20944       -11.05256         7.57975
     2006.21218       -12.99693         7.70392
     2006.21492       -17.36529         7.50473
     2006.21765       -11.91966         7.41936
     2006.22039       -19.34602         7.38573
     2006.22313       -18.88639         7.61079
     2006.22587        -7.51775         7.70263
     2006.22861        -4.68112         7.80093
     2006.23134       -11.61848         7.44005
     2006.23408        -9.75185         7.54094
     2006.23682        -5.96721         7.67676
     2006.23956       -14.48057         7.45687
     2006.24230       -10.54194         7.61209
     2006.24503        -7.69330         7.63149
     2006.24777       -15.99367         7.49050
     2006.25051       -18.89303         7.37409
     2006.25325        -7.21440         7.54353
     2006.25598        -8.20876         7.45169
     2006.25872       -13.26713         7.62631
     2006.26146       -11.02249         7.76730
     2006.26420        -6.42186         8.03893
     2006.26694        -5.14222         7.70133
     2006.26967       -12.95459         7.58234
     2006.27241       -11.23995         7.60950
     2006.27515       -22.72332         8.07256
     2006.27789        -3.46568         7.93804
     2006.28062        -7.21304         7.38055
     2006.28336        -9.03041         7.70263
     2006.28610        10.97423         7.62114
     2006.28884         0.71586         7.68193
     2006.29158        -6.56950         7.69875
     2006.29431       -12.26287         7.53318
     2006.29705        -9.12823         7.51378
     2006.29979        -1.77960         7.71944
     2006.30253        -9.04796         7.56035
     2006.30527       -11.49133         7.64701
     2006.30800        -3.20669         7.65606
     2006.31074        -7.42406         7.37667
     2006.31348       -13.04142         7.73626
     2006.31622       -17.35379         7.50731
     2006.32169        -9.40251         7.59398
     2006.32443        -5.72488         7.82421
     2006.32717       -10.21524         7.42065
     2006.32991       -17.79761         7.49179
     2006.33264       -13.44097         7.53318
     2006.33538        -5.86334         7.66124
     2006.33812        -7.02170         7.53836
     2006.34086        -9.83707         7.42065
     2006.34360       -16.35543         7.50990
     2006.34633        -8.85980         7.57328
     2006.34907       -10.75516         7.57587
     2006.35181       -13.90753         7.94451
     2006.35455       -14.44189         7.83974
     2006.35728        -9.68525         7.65736
     2006.36002       -12.68562         7.57587
     2006.36276       -11.36698         8.20320
     2006.36550       -23.35735         8.69860
     2006.36824       -11.94471         7.63407
     2006.37097        -8.83608         7.73238
     2006.37371        -3.48744         8.06997
     2006.37645        -1.08881         7.91476
     2006.37919        -3.02117         8.03893
     2006.38193        -8.11554         8.15922
     2006.38466        -2.66790         7.88630
     2006.38740       -13.59227         7.98849
     2006.39014         3.34937         8.00530
     2006.39288        -7.48400         8.22002
     2006.39561        -7.27536         7.67288
     2006.39835        -5.60572         7.80869
     2006.40109       -10.73409         8.22131
     2006.40383       -10.44445         8.19544
     2006.40657       -12.00182         8.35583
     2006.40930        -9.11618         8.12818
     2006.41204       -11.36655         7.92640
     2006.41478        -2.62691         7.78541
     2006.41752        -3.53728         8.02341
     2006.42026         1.86336         7.86302
     2006.42299       -10.28301         7.79446
     2006.42573        -9.24637         7.96650
     2006.42847        -7.04074         8.03634
     2006.43121        -6.04610         7.83586
     2006.43394       -11.59447         7.76472
     2006.43668        -7.66083         7.81904
     2006.43942        -7.69819         7.70651
     2006.44216        -3.80056         7.90312
     2006.44490        -1.11292         7.84620
     2006.44763        -8.01129         7.58234
     2006.45037        -8.77065         7.86043
     2006.45311        -5.71802         8.33902
     2006.45585       -10.57238         7.77248
     2006.45859        -8.00175         7.79188
     2006.46132        -4.85611         7.96908
     2006.46406       -10.17148         7.89536
     2006.46680        -5.37784         7.93157
     2006.46954        -1.57121         8.31444
     2006.47227        -0.42257         8.48130
     2006.47502        -9.80691         8.07127
     2006.47775       -10.26330         7.73755
     2006.48049       -12.52766         7.91217
     2006.48323       -14.60803         7.79058
     2006.48596        -3.02939         7.76989
     2006.48870         9.67724         7.65089
     2006.49144        -1.04312         7.68969
     2006.49418         0.40851         7.63019
     2006.49692         3.41515         7.90700
     2006.49965        -3.94822         7.64830
     2006.50239        -5.33358         7.87725
     2006.50513       -11.33495         7.69228
     2006.50787        -7.82131         7.58880
     2006.51060       -15.33568         7.59656
     2006.51334       -10.86204         8.00789
     2006.51608        -1.90540         8.01306
     2006.51878         7.83614         8.04799
     2006.52156        -7.82613         8.17087
     2006.52431        -6.25445         8.32220
     2006.52703        -4.76686         7.67805
     2006.52977        -1.70123         7.61209
     2006.53251        -6.36259         8.39076
     2006.53525         1.51704         7.84103
     2006.53798        11.11568         7.78800
     2006.54072        -5.73969         8.06480
     2006.54346        -4.16605         7.66382
     2006.54620       -12.00242         8.66109
     2006.54894       -10.84276         8.19415
     2006.55167        -2.86714         7.69875
     2006.55391        -7.17173         9.81099
     2006.58025       -39.38889        28.63360
     2006.58179        -7.51716         7.50343
     2006.58453       -53.70152        17.49551
     2006.58725        29.64508        18.94420
     2006.59000         9.19375        14.70419
     2006.59274         3.75739         7.73497
     2006.59548        -0.48298         7.76601
     2006.59822         4.38866         7.88759
     2006.60095        -4.63371         7.55388
     2006.60369       -12.49607         7.45299
     2006.60643        -0.62944         7.62373
     2006.60917       -11.91480         7.55259
     2006.61190        -4.22717         7.59010
     2006.61464         5.19347         7.65218
     2006.61738         5.39010         8.60418
     2006.62001       -32.44653        78.43876
     2006.62843        -2.83212         9.04655
     2006.63107         0.56428         7.49697
     2006.63381        -2.66608         7.40125
     2006.63655        -3.77545         7.63278
     2006.63918        -3.90307         7.87466
     2006.65885        -3.52240         9.62343
     2006.66119        -4.91173         8.17475
     2006.66392        -6.76110         7.97555
     2006.66666        -3.87246         8.15017
     2006.66940        -3.25382         7.72979
     2006.67214         1.70381         7.83327
     2006.67488        -2.16755         7.74790
     2006.67761        -1.17292         8.15017
     2006.68035         0.01872         7.93028
     2006.68309         2.21135         8.23683
     2006.68583        -3.05001         8.19544
     2006.68856         2.67262         7.95227
     2006.69130        -0.96974         7.77636
     2006.69404        -0.80211         7.88501
     2006.69678        -7.00647         7.81128
     2006.69952         6.05616         7.80093
     2006.70225         6.99680         8.58866
     2006.70499        -7.90357         7.98590
     2006.70773        -5.60193         7.68064
     2006.71047        -1.13929         7.88242
     2006.71321         4.64534         8.23683
     2006.71594         1.23398         7.70263
     2006.71868         1.25061         7.69875
     2006.72142        11.35325         8.13853
     2006.72416         6.55988         8.21226
     2006.72689        -3.13848         7.80093
     2006.72963         0.11615         7.76730
     2006.73237        -2.83521         7.63666
     2006.73511        -3.32458         7.75437
     2006.73785         0.40406         7.74661
     2006.74058         8.24469         7.77377
     2006.74332        16.10733         7.71556
     2006.74606        12.79497         7.76989
     2006.74880        -1.03740         7.78282
     2006.75154         4.78924         7.85396
     2006.75427        -2.28613         7.86173
     2006.75701         8.62851         7.82810
     2006.75975         0.81614         7.63666
     2006.76249         4.17578         7.92640
     2006.76522         7.32941         7.90182
     2006.76796       -10.74995         7.97296
     2006.77070        -6.77532         7.76860
     2006.77344        -5.95168         7.81257
     2006.77618        -1.16305         7.72462
     2006.77891         5.81359         7.57069
     2006.78165         6.79322         7.74143
     2006.78439         6.41186         7.61467
     2006.78713         6.60450         8.09196
     2006.78987        11.95513         7.78153
     2006.79260         7.85977         7.77636
     2006.79534        -4.09260         7.71686
     2006.79808         6.84704         8.05316
     2006.80082         3.36767         7.91734
     2006.80355        -1.89269         7.82810
     2006.80629        -1.60606         7.49955
     2006.80903         5.56358         7.79188
     2006.81177         8.38421         7.75307
     2006.81451         1.53285         8.17216
     2006.81724        -0.65352         7.73755
     2006.81998        -6.79988         7.59527
     2006.82272        -1.66125         7.57716
     2006.82546         2.50939         7.65865
     2006.82820        -3.91497         7.61079
     2006.83093        -0.49434         7.57069
     2006.83367         6.24730         7.59786
     2006.83641         6.17993         7.89536
     2006.83915        26.54157         7.93545
     2006.84188         8.36420         7.67805
     2006.84462        -4.53516         7.72203
     2006.84736       -11.35753         7.76342
     2006.85010         7.65811         8.16440
     2006.85284        24.10274         8.11913
     2006.85557         6.22938         8.02470
     2006.85831        -1.81399         7.84750
     2006.86105         0.76665         7.91088
     2006.86379        -4.67071         7.87983
     2006.86653         3.18492         8.16569
     2006.86926         7.94056         7.57716
     2006.87200        -5.25781         7.67547
     2006.87474        11.83083         7.81904
     2006.87748        -2.72554         7.44264
     2006.88021        -2.60790         7.68581
     2006.88295        -8.89027         7.87854
     2006.88569         5.45137         7.83715
     2006.88843        -2.92800         7.79317
     2006.89117         6.84664         7.82421
     2006.89390         2.09027         7.81775
     2006.89664       -11.65809         7.79576
     2006.89938       -12.46646         7.43488
     2006.90212        -3.55482         7.83456
     2006.90485         2.85882         7.67029
     2006.90759         9.00845         7.54741
     2006.91033        -6.04691         7.39866
     2006.91307        -5.53428         7.53318
     2006.91581         0.10636         7.76601
     2006.91854        -8.30101         7.65606
     2006.92128        -7.40637         7.81128
     2006.92402        -5.93674         7.66124
     2006.92676       -10.86810         8.13335
     2006.92950        -5.32547         7.72074
     2006.93223       -11.25283         7.85008
     2006.93497        -6.15520         8.01436
     2006.93771         3.93644         7.98202
     2006.94045        17.71207         8.15534
     2006.94318        -1.60529         7.85526
     2006.94592        11.04335         7.92123
     2006.95140        16.43662         8.01177
     2006.95414        14.16725         8.11783
     2006.95687        -0.56311         7.76472
     2006.95961         8.38352         7.79964
     2006.96235        -5.36884         7.68323
     2006.96509        -7.37421         7.97426
     2006.96783        -7.08757         7.99625
     2006.97056         8.67106         8.00142
     2006.97330        -2.09930         7.85655
     2006.97604         3.78333         8.33643
     2006.97878         0.95197         7.97167
     2006.98151         5.92761         8.25106
     2006.98425        12.60423         8.85770
     2006.98779         8.70781        12.59842
     2006.98973       -12.27949         8.05963
     2006.99247       -11.02485         8.20320
     2006.99520        -6.91522         8.07127
     2006.99794        -1.68558         8.04799
     2007.00342        -2.45431         8.19415
     2007.00616        17.19532         8.12171
     2007.00889         9.95196         7.77894
     2007.01163         1.25259         7.99625
     2007.01437        -0.52077         7.87983
     2007.01711        -2.98514         7.48015
     2007.01984        -8.95650         7.83715
     2007.02258        -9.69886         7.73626
     2007.02532         9.96677         7.98461
     2007.02806         7.11041         7.86302
     2007.03080        -6.61496         7.56035
     2007.03353       -14.03632         7.45816
     2007.03627       -11.99069         7.63407
     2007.03901       -13.78605         7.45428
     2007.04175         1.04458         7.68969
     2007.04449        -1.17178         7.49826
     2007.04722       -13.24715         7.71039
     2007.04996        -8.26351         8.14370
     2007.05207        10.49659        10.45902
     2007.05544        -4.91824         7.58492
     2007.05817       -13.44460         7.36891
     2007.06091       -10.44297         7.36633
     2007.06365       -11.05833         7.49179
     2007.06639         1.65430         7.49826
     2007.06913         1.02794         7.41160
     2007.07186         0.05657         7.33658
     2007.07460         2.30721         7.31329
     2007.07734        -8.59616         7.31459
     2007.08008        -3.85152         7.30812
     2007.08282         4.47511         7.44911
     2007.08555        -2.55525         7.65348
     2007.08829        -8.34462         7.40642
     2007.09103        -4.31198         7.50473
     2007.09377        -5.60435         7.36503
     2007.09650        -2.69971         7.60691
     2007.09924        -0.76907         7.82033
     2007.10198        16.59356         7.70133
     2007.10472        -0.05080         7.48403
     2007.10746        13.17683         7.78153
     2007.11019        15.99047         7.51637
     2007.11293        17.82110         7.84620
     2007.11567         0.95574         7.51507
     2007.11841         3.74637         7.41936
     2007.12115        -3.51499         7.53965
     2007.12388         8.07664         7.47756
     2007.12662         6.67628         7.55517
     2007.12936        -5.95609         7.71039
     2007.13210         3.70055         7.73626
     2007.13483        -0.91882         7.57716
     2007.13757         9.23782         7.50343
     2007.14305        17.03509         7.53706
     2007.14579        -2.33227         7.60562
     2007.14852        -2.71364         7.56293
     2007.15126        15.95500         7.68323
     2007.15400        -3.63437         7.51896
     2007.15674        14.30427         7.74143
     2007.15948        10.15790         7.58751
     2007.16221         3.32854         7.83068
     2007.16495         8.08117         7.66382
     2007.16769        -1.03319         7.56940
     2007.17043        -7.58356         7.43488
     2007.17316        -6.45092         9.58075
     2007.17590         3.13972         7.66641
     2007.17864        19.86335         7.86690
     2007.18138        -4.59401         7.74273
     2007.18412        -3.53938         7.48533
     2007.18685        -0.83874         7.76083
     2007.18959        -7.09511         7.59010
     2007.19233        -7.70647         7.60820
     2007.19507         0.59916         7.43229
     2007.19780        -1.97120         7.63537
     2007.20054        -8.65957         7.69745
     2007.20328        -9.36593         7.62761
     2007.20602        -6.16630         7.78670
     2007.20876        -8.44266         7.76342
     2007.21149         3.84397         7.45428
     2007.21423         9.77061         7.87595
     2007.21697        -0.21675         7.87983
     2007.21971        -3.03012         7.79576
     2007.22245        -3.14948         7.66382
     2007.22518         1.05515         7.70522
     2007.22792        20.56779         7.61209
     2007.23066        12.57042         7.53189
     2007.23340         2.46406         7.77248
     2007.23613        -7.49231         7.80352
     2007.23887       -11.72667         7.54094
     2007.24161        -4.06704         7.56811
     2007.24435         6.99760         8.01177
     2007.24709         1.94523         7.72074
     2007.24982        -4.91613         7.62243
     2007.25256        -5.39649         7.67159
     2007.25530        -5.21586         7.49955
     2007.25804        -3.61022         7.95744
     2007.26078        -3.28159         7.96262
     2007.26351        11.12205         7.99107
     2007.26625        -1.49532         7.68711
     2007.26899        12.48432         7.52542
     2007.27173        -3.07605         7.80869
     2007.27446        13.11959         7.84491
     2007.27720        15.19522         7.65994
     2007.27994        -2.21614         7.75178
     2007.28262        11.62736         7.95356
     2007.28547         3.11827         7.72720
     2007.28815         7.65276         7.84620
     2007.29089        11.23640         7.69487
     2007.29363        12.71904         7.97814
     2007.29637        -0.19933         8.13724
     2007.29911        -6.05169         7.45946
     2007.30732         1.23821         7.76472
     2007.31006        -5.41815         7.76083
     2007.31279        -2.00452         7.72720
     2007.31553        -3.53088         7.52154
     2007.31827        -1.85725         7.61338
     2007.32101         0.68239         7.54224
     2007.32375         2.22402         7.70392
     2007.32643        -9.67547         7.92769
     2007.32922        -6.18271         7.41160
     2007.33196        11.75893         7.93287
     2007.33470       -12.19043         7.66253
     2007.33744        -4.31280         7.56164
     2007.34017        -3.30816         7.76730
     2007.34291        -3.72853         7.60303
     2007.34565        -2.85189         7.52542
     2007.34839         0.95574         7.66124
     2007.35112         1.88138         7.34692
     2007.35386        -5.51299         8.09843
     2007.35660       -10.17935         8.02729
     2007.35934        -4.05772         7.48274
     2007.36208       -10.65308         7.45816
     2007.36481       -11.32145         7.76730
     2007.36755         0.44219         7.59268
     2007.37029        -2.68717         7.57587
     2007.37303        -0.54154         7.66641
     2007.37531       -10.65701         9.66483
     2007.37850         4.28773         7.59527
     2007.38124        -5.76663         7.59527
     2007.38398         1.36500         7.73755
     2007.38672        -3.89936         7.64830
     2007.38945        -9.43773         7.51249
     2007.39196       -13.14264         8.89780
     2007.39767         8.65818         7.76213
     2007.40041         7.42581         8.04152
     2007.40314        -7.75355         7.48533
     2007.40588        -6.74992         7.74014
     2007.40862         3.93372         7.56423
     2007.41136         0.65836         7.41936
     2007.41410         6.25199         8.67015
     2007.42326        17.30520        13.35510
     2007.42505        12.58953         7.70522
     2007.42778        -2.27183         7.34434
     2007.43052        -6.25820         7.45687
     2007.43294         0.38767         8.53045
     2007.43600       -18.08793         7.53318
     2007.43834         0.98774         9.74631
     2007.44147       -17.17766         7.48791
     2007.44421        -1.01002         7.86690
     2007.44689        -7.57452         7.58880
     2007.44969        -5.59975         7.42841
     2007.45243       -18.00911         7.47886
     2007.45493       -25.25803         8.19027
     2007.45779        -9.52512         7.66253
     2007.46058        -2.43535         7.74143
     2007.46338        -4.50757         7.45816
     2007.46600        -5.93721         7.62631
     2007.46885       -10.69730         7.46980
     2007.47159        -9.63267         7.26543
     2007.47433       -16.17303         7.35727
     2007.47707       -13.64140         7.54612
     2007.47963       -14.72318         8.01824
     2007.48231       -11.09668         8.33126
     2007.48528       -11.53249         7.35468
     2007.48802        -2.30285         7.52154
     2007.49076         6.06578         7.41418
     2007.49349       -15.20858         7.31976
     2007.49623       -12.86895         7.33011
     2007.49897        -7.54831         7.65736
     2007.50171       -13.90068         7.34692
     2007.50444       -12.52404         7.36891
     2007.50718        -2.90141         7.55517
     2007.50992        -8.57177         7.35598
     2007.51266       -11.07614         7.60950
     2007.51540        -9.85750         7.51249
     2007.51813        -0.11887         7.66770
     2007.52087        15.56377         7.79835
     2007.52361       -10.67960         7.67935
     2007.52635        -3.56296         7.49309
     2007.52908        -8.86732         7.37150
     2007.53182         2.42731         7.68969
     2007.53456         5.18495         7.74661
     2007.53730        -5.01242         7.53836
     2007.54004        -0.99178         7.42712
     2007.54277        -3.53815         7.56552
     2007.54551        -8.76851         7.31717
     2007.54825        -7.73588         7.48403
     2007.55099       -14.02724         7.43488
     2007.55373        -5.09361         7.51378
     2007.55646        -6.25797         7.63795
     2007.55920         0.06466         7.59915
     2007.56194        -2.32270         7.52154
     2007.56468         1.78894         7.71168
     2007.56741        -9.77443         7.66253
     2007.57015       -11.90179         7.50473
     2007.57289       -11.65916         7.47498
     2007.57563       -13.57452         7.31200
     2007.57837        -7.62189         7.37150
     2007.58110       -11.30625         7.43876
     2007.58384        -0.14962         7.59268
     2007.58658        -4.15598         7.35727
     2007.58932        -5.35035         7.31329
     2007.59206         6.16729         7.80223
     2007.59479        -8.94608         7.78412
     2007.59753        -7.25344         7.68193
     2007.60027       -14.81581         7.45428
     2007.60301        -6.84417         7.35598
     2007.60574        -9.96353         7.27061
     2007.60848        -8.32990         7.40254
     2007.61122        -6.61126         7.35727
     2007.61396       -11.27663         7.44652
     2007.61670       -13.18799         7.67935
     2007.61943        -6.15736         7.77118
     2007.62217        -3.49772         7.78412
     2007.62491       -10.33609         7.78024
     2007.62765        -7.10345         7.89406
     2007.63039        -6.69082         7.88889
     2007.63312        -0.94118         7.70651
     2007.63586        -1.37455         7.66900
     2007.63860        -6.34291         7.70133
     2007.64134        -6.52528         7.49179
     2007.64407         6.19136         8.03634
     2007.64681         1.32000         7.65865
     2007.64955        -6.03237         7.73626
     2007.65229        -7.60073         7.74919
     2007.65503        -5.68310         7.55259
     2007.65776        -7.47146         7.64960
     2007.66050        -9.04583         7.48533
     2007.66324         5.64181         7.40384
     2007.66598        -0.38656         7.54482
     2007.66872        -3.15092         7.55776
     2007.67145        -2.85029         7.63925
     2007.67419        -4.63665         7.98202
     2007.67635         3.06359         9.81228
     2007.67967        -4.76038         7.42065
     2007.68321         6.43120        12.28540
     2007.68514         3.26289         7.88889
     2007.68788         5.32753         7.77248
     2007.69062         2.73516         7.35727
     2007.69336        -1.71520         7.62890
     2007.69609        -0.07757         7.51249
     2007.69883         1.10307         7.55647
     2007.70157         2.47570         7.76213
     2007.70431        -1.57266         7.75695
     2007.70705        -8.57203         7.64313
     2007.70978        -0.06739         7.59915
     2007.71220         8.32447         9.23669
