# ================= DQRFIT RESULTS ================
# INPUT FILE: series/COUG.rad
# OUTPUT: LDETRENDED
# FILTER FUNCTION: f(t)
# f(t)=+line(t)+annual(t)+jumps(t)
# line(t)=+P 1+P 2*t
# annual(t)=+P 3*sin(2*pi*t+P 4)
# jumps(t)=+P 5*heav(t-2011.0000  )+P 6*heav(t-2011.3176  )+P 7*heav(t-2011.4500  )
# heav(t)=(t<0?0:1)
# TOTAL OBSERVATIONS MTOT= 3475
# INITIAL TIME INTERVAL= 2022.4719 - 2007.8629 = 14.6090
# TOTAL OBSERVATIONS AFTER PREFILTER M= 3447
# TIME-SPAN= 2022.4719 - 2007.8629 = 14.6090
# OBSERVATIONS: USED M=  3447 REJECTED MTOT-M=    28 %USED=   99.1942
# N=  7 PARAMETERS
# MAXSIG= 175.00000
# MAXRES=  43.28163
# SCALE FACTOR FOR LENGTHS: SCL=  10.00000
# SCALE FACTOR FOR SIGMAS: SCLSIG=   1.00000
# CHI^2=   7554.987 DOF=  3440 CHI^2/DOF=   2.19622
# RMS=     11.022 SDEV=     10.954 MEAN=    1.24159
#  P #       PARAMETER +-    SIGMA %error PARAMETER NAME
# P 1 =     14047.19372 +-  110.657   0.79 YZERO                              
# P 2 =        -7.00515 +-    0.055   0.79 SLOPE                              
# P 3 =         6.99353 +-    0.251   3.59 ANNUAL AMPLITUDE                   
# P 4 =        -2.73855 +-    0.047   1.71 ANNUAL PHASE                       
# P 5 =        15.73679 +-    1.477   9.38 OFFSET 2011.0000                   
# P 6 =        13.51349 +-    7.499  55.49 OFFSET 2011.3176                   
# P 7 =        33.90817 +-    7.371  21.74 OFFSET 2011.4500                   
#       T            LDETRENDED       SIG_OBS
     2007.86287        -7.66855         9.90397
     2007.86590        -1.21134         8.78656
     2007.86864        -6.16016         8.68134
     2007.87138        -8.71398         8.98811
     2007.87412        -5.63680         8.80287
     2007.87685        -3.56862         8.74655
     2007.87959       -10.49444         8.74062
     2007.88215       -11.35849         9.34378
     2007.88478        -8.94911        10.08476
     2007.88740       -15.30173        10.32781
     2007.88991        -8.06215        12.08986
     2007.89328        -7.20555         9.10370
     2007.89642        -9.98957        11.50597
     2007.89876       -13.76919         9.24894
     2007.90149       -17.57101         9.04591
     2007.90423       -17.33783         9.62239
     2007.90697       -11.22565         9.18521
     2007.90942       -29.43550        10.86724
     2007.91332       -13.67517        16.02744
     2007.91518        -9.32311         9.00886
     2007.91792       -19.74693         9.32896
     2007.92066       -12.86475         9.43863
     2007.92340       -21.16058         9.52903
     2007.92614        -9.37040         8.79546
     2007.92887       -13.01222         8.78656
     2007.93161       -14.94304         9.28599
     2007.93435       -16.62786         8.89771
     2007.93709       -24.43468         8.95699
     2007.93982       -20.04450         8.87993
     2007.94256       -10.12332         8.85770
     2007.94530        -9.98914         9.39417
     2007.94804       -19.21996         8.95106
     2007.95078        -9.73279         8.72877
     2007.95345       -16.31804         9.06221
     2007.95619       -13.03786         9.02220
     2007.95893        -6.95468         8.74359
     2007.96167        -4.73250         8.75248
     2007.96440       -14.17032         8.88734
     2007.96714       -10.62714         8.84288
     2007.96988       -21.66796         9.15409
     2007.97262       -25.41779         8.89475
     2007.97535       -20.29661         8.83547
     2007.97809       -12.44343         8.63540
     2007.98083       -18.45325         8.66653
     2007.98357       -16.04107         8.56723
     2007.98631       -19.92089         8.86659
     2007.98904       -26.81971         8.93328
     2007.99178       -14.85553         8.80435
     2007.99452       -22.75335         8.82658
     2007.99726       -16.04017         8.62948
     2008.00045       -27.31580        10.66866
     2008.00273       -25.73582         8.69913
     2008.00547       -12.46464         8.42052
     2008.00787        -8.97386        13.33768
     2008.01095        -5.19528         8.49165
     2008.01368       -18.95510         8.59687
     2008.01642       -16.16292         8.42052
     2008.01916       -28.91674         9.02812
     2008.02190       -16.52056         8.55538
     2008.02464       -17.80438         8.46201
     2008.02737       -18.99920         8.36124
     2008.03011       -12.42703         8.87845
     2008.03285       -24.53685         8.60576
     2008.03559       -24.71467         8.60428
     2008.03833       -19.29949         8.50351
     2008.04106       -17.92131         8.60428
     2008.04380       -12.08013         8.56427
     2008.04654       -15.05195         8.57613
     2008.04928       -23.36077         8.52870
     2008.05201       -27.73359         8.45460
     2008.05475       -15.63141         8.41904
     2008.05749       -22.17824         8.50796
     2008.06023       -16.81206         8.49758
     2008.06297        -9.93488         8.40422
     2008.09360       -22.71031        10.50712
     2008.09584       -23.30660         8.98515
     2008.09856       -18.73755         8.65763
     2008.10130       -27.46837         9.89804
     2008.10403       -18.99219         8.40570
     2008.10677       -15.87201         8.48573
     2008.10951       -19.99783         8.62799
     2008.11225       -18.48465         8.63985
     2008.12634       -14.33996        15.89110
     2008.12873       -13.45618        11.46299
     2008.13141       -12.71140         8.65912
     2008.13415        -5.40122         8.54797
     2008.13689       -11.37904         8.49462
     2008.13963        -4.49286         8.43386
     2008.14236        -9.90268         8.44423
     2008.14510        -7.82751         8.50647
     2008.14784        -9.74333         8.46498
     2008.15058       -14.23215         8.37013
     2008.15331       -19.38297         8.47980
     2008.15605       -10.39079        13.74522
     2008.15879       -14.07861         8.42348
     2008.16153        -7.23443         8.55686
     2008.16427       -12.73625         8.35531
     2008.16700       -21.44207         8.36124
     2008.16974       -23.20689         8.38792
     2008.17248       -19.31972         8.39384
     2008.17522       -19.96054         8.53611
     2008.17796       -15.46436         8.36420
     2008.18069       -14.75318         8.65467
     2008.18343       -13.98000         8.41904
     2008.18611       -17.37122         8.63392
     2008.18891       -11.98864         8.41311
     2008.19164       -19.61346         8.35828
     2008.19438       -19.75128         8.46942
     2008.19712        -7.59710        10.44785
     2008.19986       -14.01192         8.45312
     2008.20185       -17.70794        13.22060
     2008.20448        -8.02656        14.38839
     2008.20807        -7.92339         8.77471
     2008.21081       -19.02821         8.90957
     2008.21355       -14.47303         9.30377
     2008.21629       -11.70085         8.54500
     2008.21902       -17.65567         8.74211
     2008.22176       -22.92049         8.58354
     2008.22450       -16.13831         8.58205
     2008.22724       -16.94013         9.00738
     2008.22997       -12.04996         8.71543
     2008.23271       -12.05378         8.67542
     2008.23544       -17.59970        11.88832
     2008.23819       -21.34842         8.81917
     2008.24093       -18.70324         8.68134
     2008.24366       -21.68606         8.63392
     2008.24640       -21.03088         8.76582
     2008.24914       -15.99870         8.80435
     2008.25188       -12.62952         8.87845
     2008.25462       -10.94834         8.58798
     2008.25735        -8.40316         8.65319
     2008.26009        -9.48599         8.51685
     2008.26283       -12.23181         8.58502
     2008.26557       -13.02163         8.60428
     2008.26830       -15.31445         8.31382
     2008.27104        -9.66927         8.58650
     2008.27378       -11.59709         8.37458
     2008.27652       -14.86791         8.56131
     2008.27926        -4.89673         8.66949
     2008.28199        -3.27255         8.73766
     2008.28473        -7.10037         8.46646
     2008.28747        -6.27920         8.48721
     2008.29021       -10.83902         8.63096
     2008.29295        -7.32184         8.68431
     2008.29568        -3.64266         8.65467
     2008.29842       -10.31548         8.36865
     2008.30116       -16.13130         8.33160
     2008.30390       -16.87012         8.57316
     2008.30663        -9.10794         8.90512
     2008.30937       -12.02276         8.75396
     2008.31211       -14.63158         9.00441
     2008.31485       -12.47341         8.49165
     2008.31759       -16.00423         8.56723
     2008.32032        -8.01605         8.75693
     2008.32306        -8.12987         8.60873
     2008.32580        -6.90969         8.73321
     2008.32854        -8.90751         8.48869
     2008.33128       -15.80233         8.59835
     2008.33401        -8.04815         8.55241
     2008.33675       -12.00097         8.54797
     2008.33949        -6.92379         8.94662
     2008.34217        -8.93601         8.72284
     2008.34496        -9.94444         8.83547
     2008.34770        -4.46326         8.17451
     2008.35044       -10.26008         8.26195
     2008.35318       -10.58790         8.37754
     2008.35592        -3.56072         8.36124
     2008.35865        -0.28954         8.21897
     2008.36139       -14.21936         8.84732
     2008.36407        -8.02658         8.45905
     2008.36670       -19.72220         8.88289
     2008.36961       -15.42882         8.31234
     2008.37234       -12.40865         8.24268
     2008.37508       -10.38247        12.47517
     2008.37782       -10.80129         8.43238
     2008.37947       -17.46070        18.08589
     2008.38329        -7.17593         8.58798
     2008.38592        -1.32755         8.91846
     2008.38854        -8.37217         9.08148
     2008.39151        -5.41739         8.51388
     2008.39425        -6.02621         8.31678
     2008.39698        -5.52603         8.27232
     2008.39972        -2.10985         8.22045
     2008.40246        -6.63068         9.45345
     2008.40520        -5.12750         8.43830
     2008.40782        -9.34112         8.69765
     2008.41044        -6.35374         9.02516
     2008.41341        -9.18096         8.34642
     2008.41615        -6.72778         8.21008
     2008.41889        -4.18560         8.27232
     2008.42162        -6.26742         8.45164
     2008.42425         0.81796         9.67426
     2008.42710        -2.29506         8.37754
     2008.42967        -6.47408         9.23856
     2008.43229        -5.40870         9.74984
     2008.43531        -7.62453         8.35087
     2008.43805         0.37165         8.43238
     2008.44079       -10.76617         8.35235
     2008.44353       -10.66099         8.44423
     2008.44626        -5.22681         8.51092
     2008.44900       -14.47263         8.41904
     2008.45174       -14.04145         8.48276
     2008.45419        -9.65427         9.55719
     2008.45722        -6.75409         8.25009
     2008.45995       -10.69692         8.29603
     2008.46269       -14.87274         8.47239
     2008.46543       -13.25756         8.24713
     2008.46813       -10.94361         8.89475
     2008.47342       -12.25062         9.42825
     2008.47604        -5.12424         9.89952
     2008.47912       -11.65166         8.33012
     2008.48186        -2.79348         8.46053
     2008.48459        -4.39830         8.51240
     2008.48733        -5.21713         8.38643
     2008.49007        -6.16095         8.30048
     2008.49281        -5.40877         8.42645
     2008.49555         1.09041         8.80287
     2008.49794        -3.57881        10.25519
     2008.50102        -0.58023         8.47832
     2008.50376         3.80795         8.67394
     2008.50650        -9.27587         8.86214
     2008.50924        -1.53669         8.42497
     2008.51197        -2.39151         8.35087
     2008.51471        -5.81533         8.18785
     2008.51716         8.67085         9.67278
     2008.51979        10.35423        11.00506
     2008.52292        -0.22080         8.61910
     2008.52566        -9.61462         8.61910
     2008.52840        -2.49044         8.39681
     2008.53114         0.63374         8.35828
     2008.53388        -0.69208         8.38199
     2008.53661        -0.77090         8.43238
     2008.53901         2.99288        10.36486
     2008.54209        -3.55054         8.36717
     2008.54483         2.46463         8.51833
     2008.54757         3.25181         8.35235
     2008.55030        -4.35901         8.37902
     2008.55304         1.14617         8.45164
     2008.55578         5.67535         8.63985
     2008.55852         0.96053         8.37013
     2008.56091        -1.33169         9.80467
     2008.56354         1.38769        10.60642
     2008.56673        10.45107         8.42497
     2008.56947         7.11125         8.25158
     2008.57221         1.94943         8.50351
     2008.57494         1.91560         8.67986
     2008.57768         0.26578         9.62536
     2008.58042        12.44396         8.43238
     2008.58276        20.59634        10.84205
     2008.58590         6.21832         8.29159
     2008.58863        -3.49550         8.54204
     2008.59137         1.40368         9.84617
     2008.59411         1.85886         8.29307
     2008.59685         2.81104         8.52574
     2008.59958         8.01122         8.92142
     2008.60232         9.80839         8.81028
     2008.60466        16.60078        10.72646
     2008.60728         7.75116        11.68677
     2008.61054        -3.82007         8.45460
     2008.61327         7.93211         8.64281
     2008.61601         7.52329         8.44719
     2008.61875         7.31147         8.55538
     2008.62155         4.06208         8.66060
     2008.62423        13.35383         8.61169
     2008.62654        14.23501        11.75494
     2008.62970        12.13619         8.97922
     2008.63244         4.71236         8.55093
     2008.63518        14.61354         8.57168
     2008.63791        14.13472         8.75544
     2008.64065         9.80490         8.57020
     2008.64339         7.48408         8.50796
     2008.64616        14.71746         8.67838
     2008.64841         5.97924        11.31924
     2008.65103        14.50962        11.46447
     2008.65434         1.98280         8.70950
     2008.65708        -0.33002         9.02071
     2008.65982         2.66515         8.61614
     2008.66256        18.43733         8.86955
     2008.66532        -2.82529         8.68579
     2008.66803         2.76269         8.60725
     2008.67026        -3.01673        11.10436
     2008.67288        -0.84335        11.87498
     2008.67624        -3.65277         9.45938
     2008.67898         2.31841         8.90512
     2008.68172         1.08559         8.54797
     2008.68449         6.24697         8.52426
     2008.68720         3.13895         8.48276
     2008.68993         5.41912         8.49165
     2008.69267         2.11730         8.71543
     2008.69478        12.47609        11.76828
     2008.69815         4.08066         8.66060
     2008.70089        12.48084         8.67986
     2008.70365        11.50422         8.41311
     2008.70636        11.15420         8.44423
     2008.70910         5.00038         8.74952
     2008.71184         6.75756         8.73618
     2008.71400         9.36574        11.26589
     2008.71663         9.64612        11.89276
     2008.72005        10.01109         8.57316
     2008.72282         4.61947         8.44868
     2008.72541         8.99665         8.77915
     2008.72826         1.56563         8.51685
     2008.73100        13.48281         8.59984
     2008.73374         9.82799         8.63985
     2008.73648         1.81117         8.86807
     2008.73853         4.03455        12.06319
     2008.74469         9.17271         8.50203
     2008.74743         9.86088         8.45460
     2008.75017         8.81106         8.76137
     2008.75290        16.99924         8.58798
     2008.75564        12.06542         8.92735
     2008.75775        18.04521        11.69270
     2008.76040        16.87678        12.81158
     2008.76386         7.63996         8.54352
     2008.76659        12.63914         9.06962
     2008.76933         2.26432         8.68431
     2008.77207         2.56050         8.36569
     2008.77481         0.81167         8.39533
     2008.77754         0.96485         8.27380
     2008.77963        15.14044        12.46332
     2008.78302         5.95321         8.43978
     2008.78576        -0.22261         8.37161
     2008.78850        -2.96943         8.57168
     2008.79123         1.02075         8.90364
     2008.79397         0.53893         9.21189
     2008.79671         1.21011         8.63837
     2008.79948        -1.00851         8.56872
     2008.80150        12.32567        11.97723
     2008.80412        20.41205        13.80449
     2008.80766         2.34182         8.38792
     2008.81040        11.61000         8.75693
     2008.81314         3.42818         9.08296
     2008.81587         2.60636         8.50203
     2008.81864         4.05974         8.40866
     2008.82135         4.57572         8.35976
     2008.82335        14.45570        12.62782
     2008.82683        -2.40892         8.46942
     2008.82956         7.03426         8.75841
     2008.83230        -1.13657         8.56131
     2008.83475         4.82462         9.39417
     2008.83781        -1.41097         9.28895
     2008.84058         0.61840         8.77619
     2008.84325         7.86315         8.42497
     2008.84525        15.48414        12.74934
     2008.84787         7.39252        13.93046
     2008.85147        -7.54031         8.60280
     2008.85420        -8.43713         8.77471
     2008.85697         0.73125         8.72729
     2008.85968         2.55322         8.54797
     2008.86242         1.49640         8.59391
     2008.86516         1.06358         8.71395
     2008.86710        14.33417        14.08162
     2008.87063         0.18194         8.86066
     2008.87337        -3.22888         8.77619
     2008.87609        -0.06883         8.95551
     2008.87914        -8.61542         9.92027
     2008.88158        -3.71434         8.63540
     2008.88432        -3.61316         8.64281
     2008.88706        -3.08598         8.76433
     2008.88900        -4.16940        16.15785
     2008.89168        10.23138        16.91365
     2008.89530        -1.28325         8.63244
     2008.89801         0.18473         8.64281
     2008.90075        -4.61409         8.48424
     2008.90326        -6.52951         9.58090
     2008.90724        -1.51061        18.13035
     2008.90896        -3.12155         8.57020
     2008.91084         7.47663        15.00340
     2008.91350         5.14321        16.60541
     2008.91718        -1.36502         8.94958
     2008.91991         3.49916         8.71395
     2008.92265         5.17034         8.69024
     2008.92539         4.24952         8.87400
     2008.92813         7.53870         8.90364
     2008.93086        -6.88012         8.68727
     2008.93278         6.74527        15.54284
     2008.93537         9.55445        17.22190
     2008.93908       -10.34458         8.81472
     2008.94182       -13.23040         8.88882
     2008.94455       -12.84522         8.96440
     2008.94729        -3.63205         8.84436
     2008.95003        -8.04487         9.01330
     2008.95280        -3.36149         8.63392
     2008.95459        10.19110        15.02415
     2008.95722         7.90848        17.18930
     2008.96098        -9.46215         8.58057
     2008.96372       -24.77897         8.76730
     2008.96646        -3.27979         8.76582
     2008.96919        -4.78161         8.48573
     2008.97196         3.32777         8.71691
     2008.97467         4.99474         8.45905
     2008.97741        -0.52608         8.58057
     2008.97912        16.04291        18.24742
     2008.98288       -14.48672         9.24153
     2008.98538        38.92080        10.43006
     2008.98931       -19.28470        17.16411
     2008.99113        -6.90598         8.66504
     2008.99384       -10.26200         8.54056
     2008.99657       -10.40082         8.42941
     2008.99834        12.36956        17.67835
     2009.00479       -14.12829         8.67838
     2009.00752        -8.75411         8.47091
     2009.01029        -8.33873         8.58354
     2009.01300       -16.27175         8.71098
     2009.01574        -2.56757         8.80287
     2009.01762        -2.70638        15.57100
     2009.02019        14.68660        20.05986
     2009.02395       -19.13003         9.63128
     2009.02669       -16.77485         8.79101
     2009.02946       -14.97047         8.89475
     2009.03217       -17.29843         8.78656
     2009.03490       -17.44632         8.87104
     2009.03764       -12.15317         8.69913
     2009.03947        -7.91535        16.04226
     2009.04209         8.24203        21.31361
     2009.04472        13.15844        26.73908
     2009.04862       -14.15022         9.65944
     2009.05058         3.86350        14.33356
     2009.05801         3.68954        23.43281
     2009.05954        -2.91070         9.91582
     2009.06234       -19.55413         9.38676
     2009.06502       -13.55035         9.38528
     2009.06779       -13.25697         9.16743
     2009.07049        -9.49699         9.00145
     2009.07323       -20.94981         9.20003
     2009.07597        -8.87063         9.38824
     2009.07871       -14.43845         9.97214
     2009.08145       -12.23527        10.81093
     2009.08418        -4.20609        10.28038
     2009.08695       -12.97671        10.25371
     2009.08966       -10.32874         9.70390
     2009.09240        -6.14556         9.89952
     2009.09514        -7.54038         9.53051
     2009.09787        -0.07120         9.87433
     2009.10061        -0.27902         9.52310
     2009.10335        -4.22984         9.49939
     2009.10612         1.95554         9.48457
     2009.10882         3.80252         9.38231
     2009.11156        -6.34730         9.23856
     2009.11430       -11.12012         9.32304
     2009.11704        -7.39694         9.67574
     2009.11978         3.10623         9.59720
     2009.12251        -5.51859         9.59275
     2009.12528         2.31879         9.98547
     2009.12799         3.81880         9.57645
     2009.13073         3.26595         9.86543
     2009.13347        -9.16087         9.75577
     2009.13620        -5.59369         9.72168
     2009.13894        -2.56851         9.58238
     2009.14161         1.97717         9.52162
     2009.14442        -2.66915         9.11704
     2009.14715        -4.15798         9.35564
     2009.14989        -8.00980         9.92471
     2009.15263        -2.69062         9.35267
     2009.15537        -2.96344         9.26079
     2009.15807        -5.70253         9.24894
     2009.16632       -12.30172        10.32484
     2009.16906        -4.38054        12.08393
     2009.17180        -0.73336         9.36157
     2009.17442         1.05102         9.78985
     2009.17756        -0.77797        10.81537
     2009.18001        -4.71483         9.10222
     2009.18280        -1.85925         9.31266
     2009.18548       -10.83247         8.92439
     2009.18822       -11.48529         9.24449
     2009.19096       -12.38011         9.11111
     2009.19370        -3.29293         9.39417
     2009.19644        -0.61075         9.03998
     2009.19832        -2.04457        14.22982
     2009.20472       -13.81375         8.87993
     2009.20659       -12.43363        13.13613
     2009.21013       -16.07686         9.26524
     2009.21286        -9.15968         9.08444
     2009.21560        -3.46050         9.09629
     2009.21834        -8.51032         9.35119
     2009.22108        10.29786        20.42443
     2009.22381       -11.01496         9.16298
     2009.22655       -11.00278         8.99849
     2009.22843        -2.96360        14.79148
     2009.23112        -4.27782        16.73730
     2009.23582         9.86715        22.46213
     2009.23750        -7.01607         9.24153
     2009.24024         9.16911         9.35860
     2009.24298        -6.18471         9.34823
     2009.24575        -3.75130         9.76021
     2009.24846        -6.49235         9.26227
     2009.25034       -11.03216        15.17531
     2009.25302        -9.18439        18.54233
     2009.25570        -4.49261        17.65612
     2009.25844        -4.89639        17.90509
     2009.26112        -5.85965        20.95052
     2009.26391        -2.07607        18.24742
     2009.26762        -1.92810         9.73058
     2009.27036        -4.97192         9.33637
     2009.27247       -21.76413        26.62645
     2009.27509       -20.63075        25.38901
     2009.27783       -10.37958        31.07530
     2009.28045       -20.02820        27.67123
     2009.28308       -21.21482        29.23915
     2009.28679        -3.35984        10.25667
     2009.28952        -9.33766        10.33966
     2009.29226        -9.43949         9.92175
     2009.29426       -19.50450        20.45258
     2009.29691        -2.75989        22.88152
     2009.29962       -36.95094        29.29398
     2009.30213       -17.58036        29.67633
     2009.30482       -28.04648        42.23005
     2009.30766       -10.87660        24.22863
     2009.31143        -5.67723        10.96653
     2009.31331         3.94595        18.55863
     2009.31690        -4.00587        20.45851
     2009.31861        -7.04689        22.34357
     2009.32238        -1.28452        10.29520
     2009.32512         1.20166        11.07916
     2009.32688       -10.58295        22.01457
     2009.32962         1.93023        32.06970
     2009.33527       -22.75722        21.43809
     2009.33795       -12.55344        36.09027
     2009.34057       -29.14606        44.87683
     2009.34428         4.68292        11.48077
     2009.34702         3.00410        12.38774
     2009.34948         7.32534        13.36287
     2009.35602        -7.49287        58.23081
     2009.36997        29.02085        45.71118
     2009.37144        -8.29783        12.31808
     2009.37435        -8.08645        24.02115
     2009.37716       -12.03177        23.28758
     2009.38010         7.47684        16.32235
     2009.38261        22.45342        14.83594
     2009.38494       -18.39426        15.61545
     2009.38831        15.22338        17.94362
     2009.39082       -13.74404        15.60063
     2009.39317       -13.29762        15.88221
     2009.39658       -22.62768        25.92103
     2009.39904        16.74850        15.48652
     2009.40135         7.32568        16.36829
     2009.40426        -0.71191        16.67802
     2009.40717        42.03047        34.31784
     2009.40987         2.78241        26.10331
     2009.41267        26.07999        25.10892
     2009.41534        -0.69833        29.50590
     2009.41849         4.67378        20.24956
     2009.42084        -4.70774        22.65775
     2009.42356        13.20331        24.62135
     2009.42672        36.93145        19.52339
     2009.42915       -18.75053        20.12359
     2009.43187       -14.41952        21.43364
     2009.43451        42.77999        25.75209
     2009.43719        27.56377        22.58513
     2009.44040        15.54528        19.23145
     2009.44279        -0.34504        18.06810
     2009.44555         5.84834        21.97753
     2009.44862        12.09282        20.07468
     2009.45083         9.23430        19.10993
     2009.45408        -3.37592        18.56753
     2009.45653        -1.41974        17.10186
     2009.45927        -8.09956        18.65348
     2009.46189       -17.54018        17.45605
     2009.46503        33.81979        20.47630
     2009.46748         4.88497        17.37306
     2009.47032        -8.51518        18.67719
     2009.47832        21.18089        19.64936
     2009.48141        12.66557        17.68576
     2009.48376        16.95198        16.32235
     2009.48662         6.71603        18.75870
     2009.48931        -8.11809        38.92378
     2009.49230         3.96678        16.14303
     2009.49469         5.56356        16.93737
     2009.49756         6.41564        17.61462
     2009.50022         7.98332        23.75440
     2009.50294        44.21837        38.40065
     2009.50564         2.45225        22.39099
     2009.50838        10.85043        19.98725
     2009.51146        10.35904        13.16577
     2009.51403         8.23102        13.70965
     2009.51676        11.57820        13.33175
     2009.51950         1.79937        12.59818
     2009.52222         3.40342        14.56178
     2009.52498         9.43373        13.08426
     2009.52772        10.22995        10.77684
     2009.53028         1.34589        13.02350
     2009.53399         9.89190        29.22581
     2009.53593        -8.90755        11.35481
     2009.53835         0.51443        12.43220
     2009.54169        12.29781        13.77337
     2009.54414        14.04699         9.96324
     2009.54651         4.55257        10.69237
     2009.54973         2.15714         9.62387
     2009.55236         4.75652         9.04739
     2009.55509         6.87770         9.13334
     2009.55783         5.96588         8.54352
     2009.56057         8.99006         9.18521
     2009.56331         8.66024         9.42529
     2009.56605        -0.21855        10.07884
     2009.56878         3.86360         9.25338
     2009.57152         1.97278         9.07999
     2009.57426        13.78196         8.71691
     2009.57700         6.56813         9.42233
     2009.57974        10.21131         8.76137
     2009.58247         8.47749         8.98218
     2009.58521        13.56267         8.81769
     2009.58795         2.02585         8.75396
     2009.59069        14.16603         8.88141
     2009.59342         3.59321         9.35119
     2009.59616         8.45539         8.68727
     2009.59890        24.11557         8.82806
     2009.60182         1.30104         9.18818
     2009.60438         1.32293         8.58205
     2009.60711         7.37910         8.49610
     2009.60985        11.51228         8.57761
     2009.61259        14.72046         8.82065
     2009.61533         0.48864         8.86659
     2009.61774         1.21452        12.08986
     2009.62993         5.44993        16.59651
     2009.63175         8.01072         8.60280
     2009.63449        -2.44411         9.30822
     2009.63723        -0.40293         8.66801
     2009.63997         3.21725         8.71395
     2009.64271         0.44547         8.83547
     2009.64544         8.28861        10.04772
     2009.64818         5.89079         9.06517
     2009.65092        -1.28803         8.74211
     2009.65366         0.54115         8.58205
     2009.65639        10.78933         8.48573
     2009.65913         4.90551         8.45312
     2009.66188        10.47272         8.70950
     2009.66461         7.73786         8.40866
     2009.66735         6.71504         8.67986
     2009.67008         6.21722         8.49906
     2009.67282         3.87440         8.96885
     2009.67556         7.07658         9.08444
     2009.67830        17.99476         9.29340
     2009.68104        -3.10703         9.26376
     2009.68377         3.61512         8.75989
     2009.68651         5.73930         8.97774
     2009.68925         7.47248         9.18818
     2009.69199        -4.02335         8.65467
     2009.69472         7.47883         8.88141
     2009.69746        11.26101         8.49314
     2009.70114        -6.51122        17.32564
     2009.70294        15.74637         8.68875
     2009.70568         7.77655         8.98663
     2009.70841         4.23673         8.76730
     2009.71115         5.99891         8.97181
     2009.71389         3.32309         9.16150
     2009.71663         8.72927         9.03998
     2009.71937         6.92948         8.84288
     2009.72210         9.94462         8.80731
     2009.72484         3.86180         8.69320
     2009.72758         6.00998         8.87696
     2009.73032         4.86916         8.47387
     2009.73305         7.25134         8.78212
     2009.73579        13.70652         9.26524
     2009.73854         8.03373         9.77948
     2009.74127        13.64888         9.13483
     2009.74401         9.70506         8.85029
     2009.74674         6.45624         8.77471
     2009.74948         5.82141         8.59687
     2009.75222         3.58459         9.14372
     2009.75496        -0.88923         8.93328
     2009.75770         2.63799         9.28450
     2009.76043         6.26513         8.75544
     2009.76317         1.14231         8.94958
     2009.76591         6.79249         9.25190
     2009.76865         1.36367         9.78689
     2009.77138        -3.85915         9.28895
     2009.77414         8.04113         9.03109
     2009.77687        10.21524         8.52574
     2009.77917        17.67839        10.78870
     2009.78245        10.68736         9.23708
     2009.78507        15.71274         9.14372
     2009.78781         5.00792         9.20892
     2009.79055        -1.75590         9.40603
     2009.79329         0.47628         9.25338
     2009.79603       -11.92551         9.55719
     2009.79876        -0.20236         9.52903
     2009.80150         1.10982         9.80912
     2009.80424         4.49500         9.66537
     2009.80698        14.94217        10.29076
     2009.80971        12.55435        10.39598
     2009.81245         1.49253        10.10699
     2009.81519         7.87971         9.36749
     2009.81793        12.36089        10.25371
     2009.82067         8.60407         9.71279
     2009.82340         3.73025         9.54385
     2009.82614         5.35543         9.81949
     2009.82888         4.21261        11.22440
     2009.83162        14.18879        10.18702
     2009.83436         3.03397        10.27742
     2009.83709        -3.35686        11.00358
     2009.83983         5.70932         9.84617
     2009.84257        12.76550        10.95320
     2009.84531        11.03368        10.34263
     2009.84804        12.78386        10.97394
     2009.85078        -1.77796        10.40931
     2009.85352         3.51425         9.63128
     2009.85626        -2.25460        10.04031
     2009.85900        -3.39342        10.31299
     2009.86173         1.61776        10.41080
     2009.86447         4.86893        10.36486
     2009.86721         1.64011        11.01840
     2009.86995         9.65429         9.96473
     2009.87269         8.91947         9.79875
     2009.87542         0.87165        10.35448
     2009.87816         3.21783        10.61086
     2009.88090        -2.43699        10.22703
     2009.88364         6.68719        10.68941
     2009.88637         8.89037        10.39894
     2009.88911        13.18055        10.17072
     2009.89185         1.32673        10.07736
     2009.89459         1.94390        10.39746
     2009.89733         4.74508        10.09069
     2009.90006        -3.88874        10.91466
     2009.90280        -1.73056        11.30294
     2009.90554         5.36562        10.97691
     2009.90828        -3.83220        10.76943
     2009.91102        -3.20099        10.50712
     2009.91375         0.61416        10.59752
     2009.91649         5.08534        10.50268
     2009.91923        -3.70448        10.06254
     2009.92197         2.22769        10.42710
     2009.92470         1.52587         9.82246
     2009.92744        -0.52495         9.48309
     2009.93018        -8.39977         9.35267
     2009.93292        -1.04859         9.37639
     2009.93566        -3.69641         9.35267
     2009.93839        -0.58423         9.34675
     2009.94113        -3.07105         8.99404
     2009.94387        -4.79787         9.13334
     2009.94661        -1.20669         9.33341
     2009.94935         2.05549         9.75873
     2009.95208        -6.72234         9.47864
     2009.95482       -14.12016         9.30673
     2009.95756       -21.05498        10.42858
     2009.96030        -0.02180        10.43599
     2009.96303       -11.38562        10.40931
     2009.96577        -6.00344        10.85835
     2009.96851         4.64677        11.17401
     2009.97125         2.13992        11.31035
     2009.97399         1.01710        10.27594
     2009.97672         0.75828        10.01215
     2009.97946        -9.02155         9.80171
     2009.98220        -7.47437         9.61498
     2009.98494        -0.07719         9.53940
     2009.98773        -2.57461         9.95287
     2009.99041        -0.46183         9.68612
     2009.99315         4.79435         9.50235
     2009.99589       -16.16147         9.70835
     2009.99863        -2.38329         9.54533
     2010.00410        -5.95493        10.83908
     2010.00684        -5.06472        10.50416
     2010.00958        -3.87858        10.17220
     2010.01232        13.20560        10.70274
     2010.01505       -10.86122        10.69089
     2010.01779       -10.41704        10.85390
     2010.02053        -1.48686        10.52639
     2010.02327        -1.05568        10.29372
     2010.02601         6.82953        10.70571
     2010.02874         2.17868        10.81093
     2010.03148         5.24886        11.40964
     2010.03422       -10.01896        11.60526
     2010.03696        -2.86179        11.56228
     2010.03969         4.38639        11.15919
     2010.04243         4.27257        10.70274
     2010.04517        12.61878        11.36074
     2010.04791        14.32493        11.28367
     2010.05065        10.17011        11.07027
     2010.05338        18.45629        11.86460
     2010.05612        14.51147        11.30442
     2010.05886        10.67065        10.74424
     2010.06160         3.31983        10.85094
     2010.06434         2.02504        10.10255
     2010.06707         3.91418        10.46415
     2010.06981        -3.60164        11.03767
     2010.07255        -7.20746        10.75461
     2010.07529         1.16672        11.75642
     2010.07801         1.44280        12.24399
     2010.08081        -1.51559        11.74753
     2010.08361        -2.80994        16.67506
     2010.08624         2.82844        10.72794
     2010.08898        11.01162        12.22768
     2010.09171        11.12380        10.78425
     2010.09445         8.89097        11.21847
     2010.09719        11.32615        10.94579
     2010.09993         0.84833        11.38445
     2010.10267        13.39854        11.59192
     2010.10540        11.39769        11.71493
     2010.10814        12.75987        11.86609
     2010.11088         6.41005        10.84649
     2010.11362         5.62823        11.42446
     2010.11635         6.20341        10.91170
     2010.11909        -1.17441        11.46892
     2010.12183         7.39880        11.76679
     2010.12457         8.91194        11.47040
     2010.12731         7.36412        12.87234
     2010.13004         2.97830        11.58599
     2010.13278         4.95648        11.08657
     2010.13552         2.13666        10.78129
     2010.13826        11.29984        11.01692
     2010.14100        11.63205        10.16479
     2010.14373         5.54720        10.35300
     2010.14647        11.05338        10.62568
     2010.14921         7.73956        10.55307
     2010.15195        -1.20927        10.85390
     2010.15468        -0.47609        10.46415
     2010.15742         0.08309        11.66898
     2010.16016         7.12330        11.87794
     2010.16290         5.53845        10.97543
     2010.16564        11.40963        12.33290
     2010.16837         9.39681        11.37556
     2010.17111         6.88299        10.97543
     2010.17385         3.07217        11.17697
     2010.17659        -0.26665        10.47897
     2010.17932         6.68352        11.25552
     2010.18206         7.90370        10.68051
     2010.18480         7.36188        10.39153
     2010.18754         6.21706        10.49379
     2010.19028         6.76724        10.58122
     2010.19247         4.47062        13.85044
     2010.19965        27.07990        37.14987
     2010.20123         2.37996        12.23361
     2010.20397         4.57214        12.10616
     2010.20670        12.28332        11.61267
     2010.20944         0.16549        10.55603
     2010.21218        15.10167        10.70126
     2010.21492         9.43785        10.70719
     2010.21766         7.42706        11.16808
     2010.22039        -1.93079        10.43006
     2010.22313        -9.41061        10.65532
     2010.22587         7.65057        10.96802
     2010.22861         9.30775        10.53380
     2010.23134         0.31093        10.92059
     2010.23408        -0.61489        10.60197
     2010.23956         4.03746        11.03619
     2010.24230         5.36364        10.99321
     2010.24503        10.47482        11.02878
     2010.24777        -0.89400        10.89540
     2010.25051        -0.65682        11.28812
     2010.25325         7.08336        11.01544
     2010.25598         3.77754        10.62568
     2010.25872        14.04072        11.10436
     2010.26146        12.46790        12.58780
     2010.26420        15.23808        12.34328
     2010.26694        10.09925        12.60114
     2010.26967        -1.16357        11.22291
     2010.27241        15.01261        11.63342
     2010.27515        -2.55518        12.25140
     2010.27789        12.08097        11.19476
     2010.28062         7.90815        12.14618
     2010.28336        -2.33767        11.41112
     2010.28610         0.71451        12.26325
     2010.28884         2.61269        11.78606
     2010.29158         8.73687        12.28548
     2010.29432         5.58708        12.53445
     2010.29705         7.48422        11.82904
     2010.29979        16.13240        11.16512
     2010.30253        14.69358        10.68348
     2010.30527        -0.43724        10.89985
     2010.30800        13.61494        10.93097
     2010.31074         9.34412        10.06550
     2010.31348         2.11433         9.85802
     2010.31622        13.89248        10.45970
     2010.31895        15.09366        11.05693
     2010.32169        15.16184        10.39301
     2010.32443        10.78001        10.29224
     2010.32717         8.81819        11.55191
     2010.32991        19.55337        11.10287
     2010.33242         9.53199        11.85127
     2010.33618         9.14829        18.74981
     2010.33812         6.93391        10.54714
     2010.34086         7.76509        10.96209
     2010.34360         6.33027        10.96653
     2010.34633        12.23445        11.74160
     2010.34907         7.30763        11.21550
     2010.35181        17.95184        11.69862
     2010.35449        12.19058        10.61531
     2010.35728         4.77716        11.80681
     2010.36002        18.89934        10.86428
     2010.36276        11.42252        10.09217
     2010.36550         8.14970        10.23148
     2010.36824        -0.00912         9.52903
     2010.37098         8.16709         9.12001
     2010.37371        11.08324         9.43863
     2010.37645         8.59442         9.82098
     2010.37919         9.95760        10.37375
     2010.38193         3.19177         9.80171
     2010.38466        -0.41505        10.11292
     2010.38740        14.02713         9.68463
     2010.39014        15.74431         9.84617
     2010.39288         1.15549        10.40042
     2010.39561         7.73867        11.06731
     2010.39835         1.72085        10.92948
     2010.40109         5.40303        11.07916
     2010.40383        10.27921        11.66602
     2010.40657         0.19339        11.35629
     2010.40931        11.33860        11.99057
     2010.41204         1.23874        13.16725
     2010.41478        16.32692        12.85752
     2010.41752         1.67610        13.55256
     2010.42026        15.54128        14.58994
     2010.42299         9.00946        13.33916
     2010.42573         6.26064        14.40321
     2010.42847         5.11285        12.72711
     2010.43121         5.36900        13.25320
     2010.43394         0.66718        13.38806
     2010.43668         2.85336        12.15359
     2010.43942         7.76253        11.83645
     2010.44216        -5.65229        11.99205
     2010.44490        -3.79711        12.67968
     2010.44764         4.79210        10.61679
     2010.45037         7.47725         9.40010
     2010.45311         6.52943         9.05480
     2010.45585         3.89661         8.99700
     2010.45859         4.98279         9.60313
     2010.46132         3.41897        10.00770
     2010.46406         9.31615        10.24630
     2010.46680         6.01336         9.72613
     2010.46954        10.81950        11.36074
     2010.47227        -7.54032        10.51453
     2010.47501         9.02186         9.78393
     2010.47775         7.59304         9.52903
     2010.48049         0.47022         9.42529
     2010.48323         1.08940         9.11111
     2010.48597         2.78561         9.06073
     2010.48870        15.32776         9.36453
     2010.49144         8.03294        11.94463
     2010.49418         4.71712         8.84732
     2010.49692         0.49229         8.70506
     2010.49965         3.90747         8.51092
     2010.50239         8.88265         8.85918
     2010.50513        13.75186         9.00441
     2010.50787         3.10101         8.78360
     2010.51060         6.85719         9.42381
     2010.51334        11.07737         9.92471
     2010.51591        12.35338        10.48786
     2010.51896        18.03969        11.52968
     2010.52156         7.25091        11.60526
     2010.52430        25.93312        10.60938
     2010.52703         4.34326        10.68496
     2010.52977        15.94944        10.16627
     2010.53251         5.67662        10.10107
     2010.53525        16.81580        10.21370
     2010.53798         7.62398        10.23000
     2010.54072         5.17316         9.80023
     2010.54346        15.23437         9.90989
     2010.54620        12.60252        10.18850
     2010.54893        12.09270         9.63277
     2010.55167        12.78787        11.39778
     2010.55441         4.13805        10.03290
     2010.55715        13.67823        10.28483
     2010.55989        12.92941        10.79166
     2010.56263        20.50462        10.09514
     2010.56536        13.82177         9.88915
     2010.56810        11.97995        10.11292
     2010.57084        13.95113         9.81060
     2010.57357        18.35731        10.28038
     2010.57631        17.91949         9.41936
     2010.57905        12.25267         9.38231
     2010.58179        15.04784         9.91878
     2010.58453        12.12302         9.73206
     2010.58726         5.54520        10.06995
     2010.59000        12.48238         9.75873
     2010.59274        22.12056        10.24778
     2010.59553        21.95014        10.18850
     2010.59822        22.15292        10.18850
     2010.60096         9.08613        10.17961
     2010.60369        19.72028         9.33637
     2010.60637        22.05406        10.00029
     2010.60917         9.55463         9.72020
     2010.61190        15.71481        10.09366
     2010.61470        19.58839        10.22555
     2010.61738        15.75717         9.39417
     2010.62012        27.05438        10.19147
     2010.62286        22.42453        10.16627
     2010.62559        18.29271        10.00622
     2010.62833        10.21389         9.94694
     2010.63107        19.15007         9.41047
     2010.63381        23.66825         9.25931
     2010.63655        26.12643         9.01479
     2010.63929        21.58664         8.99849
     2010.64199        11.35558         9.52458
     2010.64479         3.97316         9.69353
     2010.64750        17.76414         9.09185
     2010.65023        12.72632         9.73799
     2010.65297        13.05150         9.60905
     2010.65571        18.02968         8.97922
     2010.65845        17.19189         9.03109
     2010.66119        21.45004         8.78064
     2010.66392        18.75022         9.32896
     2010.66666         7.45339         9.43270
     2010.66940        17.24557         9.90693
     2010.67214        13.16775        10.24926
     2010.67488        21.55993         9.53644
     2010.67762        25.22914         8.85622
     2010.68044        15.68789         9.45048
     2010.68309        16.42247         8.78212
     2010.68583        24.27565         9.82394
     2010.68845         7.58003         9.88618
     2010.69131        16.02804         9.95732
     2010.69404        15.47119        11.09695
     2010.69678         7.48840        10.27149
     2010.69952        13.63054         9.89507
     2010.70225        15.79972        10.18850
     2010.70499        23.93790        10.27149
     2010.70773        14.80008         9.79875
     2010.71047        24.34826        11.59489
     2010.71321        23.97744        11.92240
     2010.71595        24.55965        13.59554
     2010.71868        31.02880        12.55075
     2010.72142        23.86298        12.70340
     2010.72416        17.97815        12.80713
     2010.72689        31.69433        11.97427
     2010.72958        12.45111        11.91499
     2010.73240         0.60689        14.00456
     2010.73511        20.53590        12.73007
     2010.73785        34.18805        15.36797
     2010.74058        15.87323        17.17893
     2010.74332         9.95841        15.41391
     2010.74606        11.05359        17.24561
     2010.74880        12.42677        15.35315
     2010.75154        20.34695        13.57924
     2010.75428        23.17416        12.62189
     2010.75701        29.88130        12.63967
     2010.75975        16.58348        11.85571
     2010.76249        20.06566        11.56080
     2010.76522        19.43884        11.27626
     2010.76796        22.28302        12.46332
     2010.77070        12.10620        12.23806
     2010.77339        14.93101        13.73336
     2010.77618        16.72056        11.37111
     2010.77891         8.72874        11.71641
     2010.78165        16.57991        11.79051
     2010.78439        16.95709        11.83793
     2010.78713        21.46227        12.50629
     2010.78987        15.78745        10.58270
     2010.79261        10.91566        10.04179
     2010.79534        11.61681        10.85983
     2010.79808        19.66699        10.69682
     2010.80082        16.08817        11.12214
     2010.80355        11.10335        10.53973
     2010.80629        27.25453        11.11325
     2010.80903        15.09471        10.80648
     2010.81177        18.19392        11.66602
     2010.81451        23.14206        10.74276
     2010.81724        19.26724        11.31183
     2010.81998        12.37442        10.80796
     2010.82272         9.95960        11.83496
     2010.82546        12.61878        11.94167
     2010.82820        17.62496        11.67788
     2010.83094         6.52617        12.19360
     2010.83367         5.16432        13.04573
     2010.83641        -1.48150        13.09019
     2010.83915         9.58867        13.22949
     2010.84188        12.68285        12.97015
     2010.84462        25.79003        12.06467
     2010.84736        26.94621        11.79643
     2010.85010        18.20342        12.18915
     2010.85284        30.15957        11.57710
     2010.85557        17.50375        10.96802
     2010.85831        19.84793        11.55932
     2010.86105        10.22611        11.41705
     2010.86379         0.33129        11.60526
     2010.86653         6.29547        12.94051
     2010.86927         8.42468        12.20842
     2010.87200         9.30782        13.06944
     2010.87480         0.56440        14.17054
     2010.87748         9.64418        12.45887
     2010.88021        11.40136        11.87942
     2010.88295        10.83054        11.55191
     2010.88569         9.32372        11.69418
     2010.88843         9.31993        11.44076
     2010.89117         1.37808        11.49708
     2010.89390        16.69426        11.00210
     2010.89664        13.21143        10.61679
     2010.89938        19.36561        10.88354
     2010.90212        17.29679        10.97098
     2010.90485        15.04997        11.12659
     2010.90759        11.25315        11.69418
     2010.91033         6.38933        12.35513
     2010.91307         6.08951        11.68380
     2010.91581        15.60569        12.65004
     2010.91854         8.23187        12.11061
     2010.92128         1.93105        12.37144
     2010.92402        17.44823        11.88091
     2010.92676        15.00744        12.20694
     2010.92950        19.53958        12.72266
     2010.93223        12.60676        13.06944
     2010.93497        15.64994        12.97311
     2010.93771        18.49812        13.85785
     2010.94045         9.45830        13.13761
     2010.94318        13.32748        12.68561
     2010.94593        18.93269        14.68774
     2010.94866         3.19684        14.94857
     2010.95140        17.29902        14.99451
     2010.95414         5.96719        12.81010
     2010.95687         9.97137        11.88535
     2010.95961        -1.35145        12.21731
     2010.96235        12.20773        13.08426
     2010.96509        12.30391        11.66157
     2010.96783         3.50009        12.02614
     2010.97056         3.28627        11.62156
     2010.97330        18.65345        12.19064
     2010.97604        12.26163        12.05726
     2010.97878        13.84481        12.15359
     2010.98151         3.19499        12.74341
     2010.98426        26.58720        12.71081
     2010.98699        14.97934        12.22620
     2010.98973        18.42852        12.54927
     2010.99247        19.31370        12.77749
     2010.99520        15.19088        11.75790
     2010.99749        11.61186        13.91712
     2011.00711        20.05629        18.98692
     2011.00889         5.79678        11.50449
     2011.01163         8.63995        11.79199
     2011.01437        19.06713        12.50185
     2011.01711         9.11931        12.57446
     2011.01984        14.75949        12.24695
     2011.02259         4.60170        12.18915
     2011.02532        -2.06415        11.92536
     2011.02806         6.04003        11.38741
     2011.03080         8.68721        11.39334
     2011.03353         4.60439        11.80681
     2011.03627        10.89957        14.62402
     2011.03901         4.86475        14.32170
     2011.04175        23.75396        16.72545
     2011.04449        19.68810        15.68659
     2011.04722        21.88828        15.20050
     2011.04996        18.79846        12.68858
     2011.05270        16.63664        13.73484
     2011.05544        27.86282        13.37769
     2011.05817        24.64500        14.88040
     2011.06092        11.37721        12.70340
     2011.06365        24.17436        13.73188
     2011.06639        21.21554        14.61809
     2011.06913         0.92871        14.43137
     2011.07186        15.46689        13.32434
     2011.07460        25.09307        13.54367
     2011.07734        10.17525        15.44355
     2011.08008        26.96046        14.75147
     2011.08282         9.30061        13.46512
     2011.08555         1.05979        12.06615
     2011.08829        -0.07503        12.12543
     2011.09103        10.27015        12.31364
     2011.09377        22.78233        12.97756
     2011.09650         7.81951        14.16017
     2011.09924         1.81568        14.04161
     2011.10198        29.36986        14.46693
     2011.10472        22.20704        13.65333
     2011.10746         8.16322        13.24431
     2011.11019         6.23640        13.10649
     2011.11293        25.09958        15.61397
     2011.11567        21.23676        14.29502
     2011.11841        16.26197        14.77963
     2011.12115        10.20112        14.60624
     2011.12388         1.83930        13.20874
     2011.12662        14.94247        12.87975
     2011.12936        -1.28235        12.91235
     2011.13210        14.41283        12.81454
     2011.13483         7.12701        12.98052
     2011.13757        -3.18381        12.97459
     2011.14031        18.77937        13.20430
     2011.14305        15.00055        13.79412
     2011.14579        22.88873        13.19096
     2011.14852         7.64291        11.84978
     2011.15126        19.65009        11.96093
     2011.15400        16.96226        12.22917
     2011.15674       -10.10752        12.32994
     2011.15948        -4.61938        12.81751
     2011.16221       -18.48520        12.58039
     2011.16495         8.98798        13.20282
     2011.16769        -0.94684        12.63226
     2011.17043        11.64434        12.49740
     2011.17316        -2.71148        13.82524
     2011.17591         8.81673        14.03123
     2011.17864        10.36788        13.80598
     2011.18138        -8.90894        14.15720
     2011.18412        15.46523        15.44799
     2011.18685        22.24941        16.20824
     2011.18959         5.40259        15.12789
     2011.19233         7.69777        14.51436
     2011.19507        14.92898        15.33536
     2011.19780        27.57213        16.36681
     2011.20054       -12.00169        17.10927
     2011.20328         2.98649        16.43350
     2011.20602        -8.28633        14.47731
     2011.20876        -6.25915        14.86558
     2011.21149        13.22602        15.07750
     2011.21423        14.28420        15.38427
     2011.21697        20.47838        16.83511
     2011.21971        29.24956        16.66468
     2011.22245         1.62474        16.55206
     2011.22518        20.84192        15.46578
     2011.22792         3.39010        15.49542
     2011.23066        26.34828        16.70470
     2011.23340        19.21746        16.27048
     2011.23613         5.93664        16.23640
     2011.23887        10.84882        16.26307
     2011.24161       -13.09501        20.32365
     2011.24435         2.33017        20.54150
     2011.24709        10.02535        18.94543
     2011.24982        15.91653        21.36696
     2011.25257       -12.14926        17.59980
     2011.25530        -4.76411        18.00142
     2011.25804         3.35807        17.96289
     2011.26078         3.26625        17.62796
     2011.26319         0.18316        18.50825
     2011.26611         3.58164        19.10844
     2011.26918        -1.29685        23.19125
     2011.27173        18.28000        20.27179
     2011.27413        -1.52619        21.55665
     2011.27714         3.04086        21.53886
     2011.31656        33.25702        24.42721
     2011.31827        29.06401        10.13663
     2011.32049        -5.55741        25.13411
     2011.38116         8.96753        67.25745
     2011.38415        35.79154        29.14430
     2011.38672        11.70252        26.31227
     2011.38914        27.36243        32.95740
     2011.39173        40.28661        31.46654
     2011.39494        30.07109        22.45027
     2011.39751        30.84010        49.54947
     2011.45211        41.60955        44.25293
     2011.45790        30.75514        13.15836
     2011.46064        27.29132        10.73090
     2011.46338        37.28550        11.29998
     2011.46611        44.98968        11.62897
     2011.46885        47.83386        12.78639
     2011.47159        40.67203        10.98135
     2011.47433        57.59721        11.18586
     2011.47707        48.10239        10.85983
     2011.47980        37.92857        11.10436
     2011.48255        45.61378        11.13844
     2011.48528        39.57793        10.59752
     2011.48802        35.37711        10.22852
     2011.49076        39.73829        10.51009
     2011.49349        39.08547        10.77536
     2011.49623        36.51165        10.98580
     2011.49897        41.59382        10.47008
     2011.50171        46.40704        10.40783
     2011.50444        30.88318        10.46118
     2011.50718        33.22936        10.42858
     2011.50992        34.22954        10.48638
     2011.51266        48.67672        11.17697
     2011.51540        55.20690        11.03470
     2011.51813        45.98108        11.71937
     2011.52088        47.26029        11.36370
     2011.52361        49.39944        11.17104
     2011.52635        56.20662        11.26589
     2011.52908        48.01579        10.88206
     2011.53182        48.49997        12.85456
     2011.53456        46.64915        11.34295
     2011.53621        27.87671        33.09967
     2011.54380        70.45585        23.42689
     2011.54551        56.04787        11.22884
     2011.54825        51.42605        10.99765
     2011.55099        38.75123        11.16363
     2011.55373        51.54941        11.14881
     2011.55646        53.55458        11.33110
     2011.55920        51.56876        11.37556
     2011.56194        56.35394        12.92124
     2011.56468        56.95912        11.47633
     2011.56741        44.24830        11.29257
     2011.57015        51.84848        11.28071
     2011.57289        42.93566        11.27626
     2011.57563        67.29084        11.24811
     2011.57837        51.28202        11.48818
     2011.58110        44.10720        11.60378
     2011.58384        56.78538        11.59340
     2011.58658        42.25155        11.69121
     2011.58932        57.92073        10.99321
     2011.59206        66.67991        12.55964
     2011.59479        52.96809        11.24811
     2011.59754        55.16430        11.53413
     2011.60027        64.52445        11.19476
     2011.60301        53.31763        11.52079
     2011.60574        62.75181        11.48818
     2011.60848        67.72999        12.42627
     2011.61122        56.48617        11.80236
     2011.61396        61.52134        11.51190
     2011.61670        62.76356        11.23329
     2011.61943        51.04270        11.55636
     2011.62217        59.05788        11.19031
     2011.62491        56.80906        11.17549
     2011.62765        53.09724        11.56376
     2011.63039        50.09742        11.35333
     2011.63312        58.23060        10.88947
     2011.63587        55.16081        10.94430
     2011.63860        53.76896        11.46744
     2011.64134        74.57213        11.92240
     2011.64407        66.25631        11.44076
     2011.64681        52.63249        11.02581
     2011.64955        57.37767        11.59192
     2011.65229        49.35485        11.63638
     2011.65503        69.16306        11.43335
     2011.65776        59.82521        11.29701
     2011.66050        81.92539        11.51634
     2011.66324        70.76957        11.41112
     2011.66598        58.17975        11.92536
     2011.66872        59.79093        12.06763
     2011.67145        62.76210        11.49559
     2011.67420        67.49832        10.99914
     2011.67693        68.42846        11.57562
     2011.67967        59.57364        11.25700
     2011.68240        60.70582        11.23180
     2011.68514        56.32400        11.08954
     2011.68788        55.95718        11.28219
     2011.69062        66.28436        11.75346
     2011.69336        54.44757        11.14437
     2011.69609        53.84772        11.24811
     2011.69883        59.02289        11.58303
     2011.70157        61.67007        11.27478
     2011.70431        60.50025        11.43187
     2011.70705        62.25943        12.04540
     2011.70978        61.45361        11.42001
     2011.71252        58.11179        11.60971
     2011.71526        58.44097        12.22027
     2011.71800        63.85115        12.11209
     2011.72073        76.55333        11.39927
     2011.72347        71.68851        11.56228
     2011.72621        62.30669        11.70603
     2011.72895        63.54386        11.54302
     2011.73169        70.98408        11.84386
     2011.73442        71.11222        11.19327
     2011.73716        67.40240        11.70752
     2011.73990        64.31958        11.36963
     2011.74264        73.47676        11.35184
     2011.74538        68.02594        12.55668
     2011.74811        75.16212        11.66454
     2011.75085        73.50430        11.74012
     2011.75359        60.49248        11.07175
     2011.75633        63.78465        11.57266
     2011.75906        63.20583        10.86576
     2011.76180        64.53501        11.17549
     2011.76454        65.30019        11.75049
     2011.76728        58.07537        11.36666
     2011.77002        58.19258        13.27543
     2011.77275        66.78073        12.43961
     2011.77549        73.58491        14.45211
     2011.77823        64.85209        12.76860
     2011.78097        49.50127        11.14585
     2011.78371        60.68845        10.93689
     2011.78644        67.22862        11.02729
     2011.78919        69.21084        11.37111
     2011.79192        63.60598        11.54005
     2011.79466        61.93716        11.25996
     2011.79739        64.12334        11.15178
     2011.80013        65.82052        11.07768
     2011.80287        67.16970        11.03915
     2011.80561        52.64688        11.39927
     2011.80835        68.67509        11.88091
     2011.81108        59.95724        11.69714
     2011.81382        45.11941        11.71493
     2011.81650        49.86719        11.52820
     2011.81930        58.41977        11.43039
     2011.82203        64.12495        11.56228
     2011.82477        60.38413        12.70340
     2011.82752        60.07634        11.36666
     2011.83033        58.89609        11.96093
     2011.83299        58.13967        11.58007
     2011.83572        51.57985        11.56376
     2011.83846        57.03003        11.31035
     2011.84120        58.76521        10.80648
     2011.84394        56.89738        11.84534
     2011.84668        53.03260        11.43780
     2011.84941        58.87474        11.38148
     2011.85215        52.66392        11.25552
     2011.85489        52.02410        11.31035
     2011.85763        62.76128        11.70752
     2011.86036        64.14946        11.79051
     2011.86310        76.45464        12.21138
     2011.86585        60.22585        11.79199
     2011.86858        77.40700        11.53264
     2011.87132        62.41817        11.83200
     2011.87405        46.47135        12.07652
     2011.87679        52.33353        12.22768
     2011.87953        45.38771        11.36518
     2011.88227        49.00189        11.07323
     2011.88501        55.67610        10.85390
     2011.88774        50.27125        10.82426
     2011.89048        55.82643        11.27478
     2011.89311        62.35184        12.41589
     2011.89609        52.62969        12.21879
     2011.89869        52.08197        11.05693
     2011.90143        54.94214        11.30739
     2011.90417        49.16832        11.08954
     2011.90668        50.45394        12.73007
     2011.90966        54.77578        11.68529
     2011.91238        54.79186        11.33406
     2011.91512        52.61204        11.22588
     2011.91786        57.63922        11.95500
     2011.92060        50.16740        11.70752
     2011.92334        50.26858        11.74456
     2011.92607        44.68776        11.95352
     2011.92881        48.76993        11.22440
     2011.93155        60.32411        11.17253
     2011.93429        58.06329        10.99914
     2011.93702        57.50847        11.62601
     2011.93976        61.98965        11.58599
     2011.94250        63.83083        11.52820
     2011.94524        55.70101        11.21254
     2011.94798        69.58619        11.35777
     2011.95071        69.66837        10.62272
     2011.95345        51.43355        11.10880
     2011.95619        51.47773        11.10287
     2011.95893        55.35090        10.78425
     2011.96165        54.83298        11.03915
     2011.96462        73.43979        13.15688
     2011.96714        60.83444        10.77981
     2011.96988        63.88962        10.69237
     2011.97262        51.99080        11.06138
     2011.97535        56.76298        10.58863
     2011.97809        53.71416        11.17253
     2011.98084        48.29837        10.67459
     2011.98357        66.77752        10.83908
     2011.98631        50.53669        10.54121
     2011.98904        52.09787        11.02729
     2011.99178        62.46205        11.08361
     2011.99452        59.30823        11.70455
     2011.99726        57.20941        10.44933
     2012.00273        56.92277        10.66421
     2012.00547        56.23595        10.79759
     2012.00821        54.61313        10.96209
     2012.01095        61.26531        10.89244
     2012.01368        63.88149        11.14733
     2012.01642        57.92566        10.51898
     2012.01916        50.99988        10.65977
     2012.02190        52.93502        10.72794
     2012.02464        53.95220        10.81389
     2012.02737        53.53838        10.64050
     2012.03011        55.81756        10.53973
     2012.03285        57.67774        10.63606
     2012.03559        53.48692        10.43006
     2012.03833        50.03013        10.51009
     2012.04106        48.44828        10.38412
     2012.04380        46.97845        10.75461
     2012.04654        35.19363        16.76398
     2012.04928        60.51781        10.85687
     2012.05201        51.98199        12.03799
     2012.05475        62.95317        10.81093
     2012.05749        54.73738        12.22324
     2012.06023        62.85353        10.70423
     2012.06297        28.50671        11.35333
     2012.06570        45.61389        10.90429
     2012.06844        51.95807        10.76647
     2012.07118        49.67925        10.75165
     2012.07392        55.37042        10.57974
     2012.07666        51.77964        10.91615
     2012.07939        56.43278        11.74901
     2012.08213        56.46796        10.38264
     2012.08487        55.89914        10.48045
     2012.08761        54.02532        10.67014
     2012.09034        62.94750        10.79166
     2012.09308        61.27668        11.07027
     2012.09582        61.14389        10.93689
     2012.09856        62.20704        10.50861
     2012.10130        51.39421        10.91318
     2012.10403        55.89839        10.39746
     2012.10677        53.01557        11.23329
     2012.10951        55.19175        11.07916
     2012.11225        56.21693        10.73238
     2012.11498        53.19311        10.75461
     2012.11772        58.19429        10.68051
     2012.12046        58.21847        10.92800
     2012.12320        61.22865        11.08213
     2012.12594        50.11683        10.84501
     2012.12867        51.62101        11.42001
     2012.13141        39.83818        11.02729
     2012.13415        48.97740        10.89688
     2012.13689        52.98154        11.05545
     2012.13963        51.40472        11.16808
     2012.14236        38.23890        11.40223
     2012.14510        54.22208        11.11177
     2012.14784        51.63326        10.98580
     2012.15058        49.38044        11.84089
     2012.15332        43.08365        10.84798
     2012.15605        42.15580        12.19360
     2012.15879        55.12197        10.88947
     2012.16152        34.16412        11.38445
     2012.16449        46.94393        13.10797
     2012.16700        49.14851        11.11473
     2012.16974        37.91669        11.33554
     2012.17248        50.55390        10.94579
     2012.17522        39.59105        10.94134
     2012.17796        46.15023        11.00655
     2012.18069        45.79041        10.77388
     2012.18343        51.05759        11.46744
     2012.18617        48.99477        11.21550
     2012.18891        46.69394        10.82278
     2012.19164        44.24212        11.40668
     2012.19438        53.63030        10.79463
     2012.19712        35.71348        10.76202
     2012.19986        42.21866        11.45558
     2012.20260        46.50784        11.51486
     2012.20533        46.48602        10.91170
     2012.20807        53.39720        10.96209
     2012.21081        42.79141        10.49379
     2012.21355        42.43256        10.74276
     2012.21629        43.20073        11.07175
     2012.21902        41.88991        10.95171
     2012.22176        47.05709        10.98135
     2012.22450        41.78027        10.63457
     2012.22724        46.88645        10.64050
     2012.22998        52.27566        10.98284
     2012.23271        57.41481        10.67162
     2012.23545        52.03699        10.86131
     2012.23819        48.01317        10.64347
     2012.24093        44.05035        10.67755
     2012.24366        52.54352        12.62337
     2012.24640        51.45570        10.81982
     2012.24914        54.30992        11.55636
     2012.25188        46.28006        10.67755
     2012.25462        40.09024        10.53084
     2012.25735        51.49342        10.61383
     2012.26009        44.22260        10.80500
     2012.26283        51.49978        10.71312
     2012.26557        40.73096        11.01099
     2012.26831        52.48917        10.61531
     2012.27104        53.60532        11.32220
     2012.27378        60.22749        11.03619
     2012.27652        50.98167        10.88206
     2012.27926        39.01185        10.81982
     2012.28199        32.95803        10.23000
     2012.28473        34.94321        10.25223
     2012.28747        31.71939        10.24037
     2012.29021        24.77857        10.26556
     2012.29295        29.95975        10.10848
     2012.29568        29.04893        10.30113
     2012.29842        30.60911        10.04475
     2012.30116        31.46628        10.10551
     2012.30390        37.76846        10.21666
     2012.30664        52.39468        10.66866
     2012.30937        59.80882        11.09843
     2012.31211        53.72900        11.12807
     2012.31485        47.33918        10.99617
     2012.31759        46.18036        10.88354
     2012.32032        51.38254        11.30590
     2012.32306        53.43972        10.84057
     2012.32580        51.23493        11.16215
     2012.32854        41.51108        11.16956
     2012.33128        59.35325        11.28812
     2012.33401        48.56843        11.11769
     2012.33675        47.10561        11.00803
     2012.33949        52.90679        11.15474
     2012.34223        45.78797        10.74720
     2012.34497        43.57118        10.97839
     2012.34770        50.93033        11.27330
     2012.35044        56.20751        11.02729
     2012.35318        53.99969        11.56673
     2012.35592        40.14487        10.59308
     2012.35865        39.22204        10.03586
     2012.36139        50.05822        10.48341
     2012.36413        49.74444        12.24399
     2012.36687        55.68558        10.76647
     2012.36961        62.84576        11.15178
     2012.37234        59.34194        11.38741
     2012.37508        66.55212        11.07175
     2012.37782        63.51230        11.16808
     2012.38056        49.43848        11.44373
     2012.38330        63.79069        11.41557
     2012.38603        56.90384        11.56673
     2012.38877        57.69001        11.59340
     2012.39151        52.93319        11.21106
     2012.39425        47.92137        11.22291
     2012.39698        57.33155        11.34295
     2012.39972        48.18173        11.01544
     2012.40246        52.60991        12.48258
     2012.40520        52.92309        11.02581
     2012.40794        58.72927        12.84566
     2012.41067        59.82145        10.90874
     2012.41341        58.15863        10.94282
     2012.41615        38.78880        10.67162
     2012.41889        67.73898        11.31924
     2012.42162        60.42316        10.93541
     2012.42436        55.43834        10.93245
     2012.42710        56.08952        11.28664
     2012.42984        55.30470        11.24514
     2012.43258        53.75888        10.75461
     2012.43531        53.97706        10.72942
     2012.43805        64.35724        10.89095
     2012.44079        50.93145        10.96357
     2012.44353        51.24460        11.12510
     2012.44626        58.41377        10.99321
     2012.44900        66.31695        10.91170
     2012.45174        57.86913        11.26737
     2012.45448        58.18831        10.79314
     2012.45722        62.12449        11.12510
     2012.45995        49.02867        11.22588
     2012.46269        62.10985        10.71164
     2012.46543        46.78803        10.90133
     2012.46817        62.07621        10.75165
     2012.47091        58.19939        10.76350
     2012.47364        58.40956        11.13400
     2012.47638        48.95074        12.42034
     2012.47912        67.93992        10.82723
     2012.48186        50.12510        10.91763
     2012.48459        61.07728        10.65236
     2012.48733        49.94146        10.50416
     2012.49007        61.29364        10.66718
     2012.49281        63.70182        10.66125
     2012.49555        55.74500        10.64198
     2012.49833        62.74651        10.67459
     2012.50102        57.33636        10.77240
     2012.50376        67.99953        10.81389
     2012.50650        62.31771        11.10732
     2012.50924        59.83289        11.16067
     2012.51197        63.44707        11.02137
     2012.51471        47.50325        10.61975
     2012.51745        66.73546        10.89985
     2012.52019        58.31661        11.00951
     2012.52292        48.66479        10.31743
     2012.52566        56.56797        10.77832
     2012.52840        61.56315        10.96505
     2012.53114        62.19832        10.98135
     2012.53388        56.74350        10.71608
     2012.53662        60.00572        11.20068
     2012.53935        62.98286        10.65680
     2012.54209        62.26804        10.78573
     2012.54483        57.87022        10.35004
     2012.54757        66.89540        10.89540
     2012.55030        43.39558        11.46596
     2012.55304        57.87176        10.75758
     2012.55578        60.85897        10.63013
     2012.55852        65.20912        10.94727
     2012.56125        67.11929        10.76943
     2012.56399        64.73947        10.80796
     2012.56673        67.25865        10.89244
     2012.56947        69.01383        10.87317
     2012.57221        71.44401        10.71312
     2012.57494        65.70819        10.61383
     2012.57768        66.79037        10.81093
     2012.58042        62.80755        12.32549
     2012.58316        69.91273        10.70274
     2012.58590        70.58591        10.68644
     2012.58858        75.20269        11.18883
     2012.59138        72.30233        11.14733
     2012.59411        74.21148        11.06434
     2012.59685        69.73362        10.64643
     2012.59912        73.35757        13.26358
     2012.60261        73.53898        12.25881
     2012.60506        70.93216        12.26473
     2012.60780        62.27234        13.11686
     2012.61054        83.64152        12.13580
     2012.61328        78.17273        10.90577
     2012.61601        70.61488        10.80945
     2012.61875        71.05805        10.85094
     2012.62050        98.68331        22.16722
     2012.66377        72.78341        45.98386
     2012.66529        66.36010        12.91828
     2012.66803        72.18828        11.23329
     2012.67077        57.67646        13.39844
     2012.67351        71.67964        11.12659
     2012.67624        70.98181        11.20661
     2012.67898        82.03199        11.05249
     2012.68172        73.22817        10.91318
     2012.68446        73.98635        12.12098
     2012.68720        86.77153        11.20217
     2012.68994        78.96174        11.40371
     2012.69267        76.41689        11.65120
     2012.69541        59.10907        11.19031
     2012.69815        67.31525        10.87613
     2012.70089        69.30943        11.12955
     2012.70362        68.96660        10.78129
     2012.70636        76.76878        11.19031
     2012.70910        75.48200        10.88206
     2012.71184        78.05714        10.65680
     2012.71457        77.59732        10.68941
     2012.71731        76.68350        11.02729
     2012.72005        79.35968        10.88947
     2012.72279        73.74686        10.74868
     2012.72553        75.36104        11.34147
     2012.72826        73.67822        11.12510
     2012.73100        76.60040        11.30294
     2012.73374        84.13257        11.75346
     2012.73648        78.13175        11.23180
     2012.73921        73.75193        11.17104
     2012.74195        82.57811        11.91054
     2012.74469        78.45629        10.98284
     2012.74743        79.45250        11.55043
     2012.75017        78.17665        11.29998
     2012.75290        71.47283        11.26589
     2012.75564        66.33201        12.56854
     2012.75838        73.42019        11.20068
     2012.76112        78.79836        11.03322
     2012.76386        76.37954        10.79907
     2012.76659        82.35472        10.93838
     2012.76933        85.05790        11.22588
     2012.77207        76.99908        10.96209
     2012.77481        73.48026        10.77684
     2012.77754        72.30244        12.17137
     2012.78028        72.46462        11.07916
     2012.78302        68.96180        11.16215
     2012.78576        71.46001        11.09250
     2012.78850        63.27215        11.43187
     2012.79123        69.08833        11.42891
     2012.79397        78.79151        10.97839
     2012.79660        64.28193        11.43632
     2012.79957        64.71974        12.86493
     2012.80219        66.67305        11.14289
     2012.80493        69.09526        11.08954
     2012.80766        67.57141        12.22324
     2012.81040        68.09659        12.95533
     2012.81314        60.31377        11.41112
     2012.81587        58.91495        11.43780
     2012.81861        51.50812        11.34592
     2012.82135        58.29730        11.70752
     2012.82409        81.03448        12.85456
     2012.82683        61.47866        11.87646
     2012.82956        65.17984        11.81570
     2012.83230        58.39802        11.57562
     2012.83504        56.50220        11.56525
     2012.83778        67.90638        10.89392
     2012.84052        63.95456        11.43928
     2012.84326        64.31277        10.98135
     2012.84599        63.16191        11.24366
     2012.84873        58.02009        11.20365
     2012.85147        68.91827        11.20217
     2012.85420        58.41245        12.04837
     2012.85694        49.51963        12.65153
     2012.85968        53.68281        10.97246
     2012.86242        63.45902        11.59044
     2012.86516        67.32217        11.06434
     2012.86789        56.52535        11.83348
     2012.87063        57.60453        11.46151
     2012.87337        59.76971        11.19772
     2012.87611        69.27188        11.28071
     2012.87885        65.95006        11.08361
     2012.88158        67.64324        10.77832
     2012.88432        57.38742        11.01544
     2012.88706        67.12460        11.51634
     2012.88980        64.85378        11.15326
     2012.89253        62.43996        10.44933
     2012.89527        64.68114        11.17401
     2012.89801        63.50132        10.67310
     2012.90075        62.27053        10.84798
     2012.90349        66.30167        10.81241
     2012.90622        64.40785        10.86724
     2012.90896        64.87803        11.12955
     2012.91170        51.86221        14.64032
     2012.91444        58.83439        14.44322
     2012.91718        65.98457        14.02383
     2012.91992        46.79278        15.66584
     2012.92265        51.13093        16.51797
     2012.92539        52.44711        15.17828
     2012.92816        44.27652        16.77139
     2012.93086        39.51147        14.21796
     2012.93360        51.90264        13.81931
     2012.93634        57.33782        11.90610
     2012.93908        59.57500        12.06319
     2012.94182        51.16618        14.05198
     2012.94459        56.00259        16.64542
     2012.94732        59.65677        17.07371
     2012.95003        60.43272        17.68131
     2012.95277        63.11090        12.89605
     2012.95551        53.81808        12.04540
     2012.95825        32.01129        12.65597
     2012.96098        53.81543        10.97394
     2012.96372        48.71061        11.18586
     2012.96646        34.26779        10.97246
     2012.96919        49.61297        11.48522
     2012.97193        19.10115        14.09496
     2012.97467        61.41433        10.95616
     2012.97741        56.17954        10.64050
     2012.98015        40.60069        12.15359
     2012.98288        57.54587        10.76202
     2012.98562        61.26005        10.78870
     2012.98836        55.08823        10.80352
     2012.99110        61.88140        10.55455
     2012.99384        59.02258        11.85571
     2012.99657        61.62276        10.72497
     2012.99931        59.69794        10.85835
     2013.00205        61.67412        10.73535
     2013.00479        67.91330        10.59456
     2013.00752        62.32248        11.37259
     2013.01026        53.69266        11.78013
     2013.01300        64.13184        10.76795
     2013.01574        61.81802        10.88206
     2013.01848        60.51519        12.75230
     2013.02121        66.50137        10.89688
     2013.02395        52.50355        11.15771
     2013.02669        59.81173        11.10732
     2013.02943        53.27291        10.54269
     2013.03216        57.15709        11.04063
     2013.03491        63.91430        11.57710
     2013.03764        67.33145        11.42742
     2013.04038        51.53663        11.46744
     2013.04312        51.60981        11.39186
     2013.04585        52.48099        11.65268
     2013.04859        55.56116        11.70752
     2013.05133        65.91134        11.28516
     2013.05407        71.34152        11.19031
     2013.05681        67.29970        11.07175
     2013.05954        64.35188        11.13992
     2013.06228        59.92806        11.36815
     2013.06502        54.10224        11.00062
     2013.06776        55.86242        11.36518
     2013.07049        64.94760        11.07027
     2013.07324        61.59881        12.77601
     2013.07597        59.96895        11.41705
     2013.07861        64.14647        11.18290
     2013.08158        61.90128        11.79347
     2013.08418        52.31349        11.23921
     2013.08692        67.90867        12.02021
     2013.08966        60.23085        11.36074
     2013.09240        56.88006        10.81241
     2013.09514        67.31021        10.96357
     2013.09787        64.05439        11.76679
     2013.10061        56.63357        11.71048
     2013.10335        57.65575        11.29849
     2013.10594        57.55893        12.09727
     2013.11720        52.30477        12.14469
     2013.11978        58.18582        13.18059
     2013.12251        60.14400        11.01840
     2013.12525        53.31118        11.23329
     2013.12799        68.78336        11.44817
     2013.13073        61.59854        11.13548
     2013.13347        34.14871        12.83677
     2013.13618        67.78473        11.01247
     2013.13915        63.20754        13.45771
     2013.14168        59.29025        11.22884
     2013.14442        54.15843        11.43928
     2013.14715        69.45261        11.52820
     2013.14990        45.78682        10.79314
     2013.15263        48.40197        11.15326
     2013.15537        62.35015        12.42479
     2013.15811        49.69133        11.26737
     2013.16084        51.73251        10.73831
     2013.16358        56.44668        11.48522
     2013.16632        57.58686        11.00506
     2013.16906        58.25204        11.14289
     2013.17180        53.87622        11.14733
     2013.17453        56.35540        11.48522
     2013.17727        56.83158        11.26441
     2013.18001        53.34676        11.42150
     2013.18275        63.02994        11.66157
     2013.18548        51.88012        11.44224
     2013.18823        52.83733        11.16363
     2013.19096        60.59547        11.39038
     2013.19370        63.37665        11.52227
     2013.19644        66.35283        11.12659
     2013.19917        60.27201        11.23625
     2013.20191        67.72919        11.17401
     2013.20465        56.01237        11.04211
     2013.20739        74.91255        11.51931
     2013.21013        63.73673        11.21402
     2013.21286        58.04091        11.41409
     2013.21552        54.09452        11.34740
     2013.21849        54.93033        12.11357
     2013.22108        54.00844        10.92800
     2013.22381        60.29562        11.13103
     2013.22656        53.93284        11.12510
     2013.22929        58.16498        10.74424
     2013.23203        65.65316        11.04360
     2013.23477        55.07234        11.22884
     2013.23750        56.24452        11.45262
     2013.24024        61.64170        11.51931
     2013.24298        68.67588        12.02910
     2013.24572        69.24009        11.32369
     2013.24846        64.15423        11.54746
     2013.25119        63.53141        11.66750
     2013.25393        53.42059        12.00391
     2013.25667        69.64377        12.44553
     2013.25941        68.84195        11.53116
     2013.26214        69.22113        11.93129
     2013.26489        57.29334        11.60081
     2013.26762        61.32049        11.42001
     2013.27036        58.30667        11.88535
     2013.27310        59.07885        12.07208
     2013.27583        51.30003        12.12098
     2013.27857        63.27120        11.84386
     2013.28131        71.68538        11.45855
     2013.28405        68.68260        11.62601
     2013.28679        63.04974        11.79940
     2013.28952        53.47592        11.93129
     2013.29226        61.83110        12.00391
     2013.29500        57.90928        11.58303
     2013.29765        47.14186        12.08986
     2013.31690        64.51771        12.08393
     2013.31964        62.85689        11.64824
     2013.32238        60.74210        11.44669
     2013.32512        76.77725        11.39334
     2013.32785        71.00443        11.84237
     2013.33059        56.36861        11.56969
     2013.33333        61.62979        13.05907
     2013.33607        76.52596        11.91054
     2013.33880        64.47314        11.82904
     2013.34155        69.67836        11.94908
     2013.34428        65.92350        12.03058
     2013.34702        72.72768        11.56228
     2013.34976        68.88486        11.62749
     2013.35249        70.52304        11.34147
     2013.35523        65.94822        11.90165
     2013.35797        73.08040        13.08130
     2013.36071        67.14761        11.37704
     2013.36344        57.60075        11.77569
     2013.36618        74.37293        11.96982
     2013.36892        66.23211        11.51782
     2013.37166        69.21429        11.66454
     2013.37440        54.77247        12.07949
     2013.37713        51.79065        11.42742
     2013.37987        59.28783        11.10436
     2013.38261        61.12301        11.65416
     2013.38535        78.89019        11.90610
     2013.38809        60.64837        11.56080
     2013.39082        62.26654        12.24547
     2013.39907        51.63032        13.63703
     2013.40177        64.93926        11.16215
     2013.40451        59.84244        11.13844
     2013.40725        75.09562        11.87053
     2013.40999        61.22580        11.63342
     2013.41273        67.74098        11.43187
     2013.41546        59.18916        11.86312
     2013.41821        50.37937        11.64083
     2013.42094        77.36951        11.73715
     2013.42368        56.44869        11.22588
     2013.42642        64.61387        11.10287
     2013.42915        74.05605        11.65416
     2013.43207        68.60450        12.40404
     2013.43463        66.29841        11.86460
     2013.43737        66.36162        11.52523
     2013.44010        72.54377        11.40519
     2013.44284        70.57395        11.19327
     2013.44539        72.73479        12.57743
     2013.44832        50.07630        12.42775
     2013.45106        63.69048        10.70719
     2013.45379        70.52266        11.66750
     2013.45654        68.17888        11.45262
     2013.45927        54.63602        13.64889
     2013.46201        76.15320        11.95056
     2013.46475        75.17338        11.64675
     2013.46748        61.64456        11.51338
     2013.47022        64.71374        11.32072
     2013.47296        62.25892        11.30590
     2013.47570        66.73313        11.57266
     2013.47814        59.76424        15.79922
     2013.48121        74.72569        16.06745
     2013.48391        69.44463        12.59966
     2013.48665        76.27981        15.86294
     2013.48939        66.34399        12.58484
     2013.49212        86.36517        14.65959
     2013.49486        48.62935        15.36204
     2013.49760        67.46153        12.25732
     2013.50034        61.15471        11.35333
     2013.50308        87.05189        11.39927
     2013.50581        68.27806        11.36815
     2013.50855        79.82324        11.26441
     2013.51129        71.56542        11.11473
     2013.51403        72.75564        11.34147
     2013.51676        66.37878        11.06434
     2013.51950        71.88096        11.21106
     2013.52224        73.53514        11.28664
     2013.52498        52.19032        11.51190
     2013.52772        72.19350        11.13696
     2013.53023        71.39808        12.19212
     2013.54798        55.83448        31.00565
     2013.54855        66.97044        31.27537
     2013.56149        96.51907        23.14383
     2013.56331        66.74282        11.50449
     2013.56605        73.17500        11.56376
     2013.56878        72.16518        11.22588
     2013.57152        76.21036        11.20068
     2013.57426        75.65154        11.29553
     2013.57700        79.15772        11.41112
     2013.57974        75.34190        11.49708
     2013.58247        84.74508        10.91318
     2013.58521        75.46726        11.39038
     2013.58795        71.74644        11.04952
     2013.59069        84.37662        11.26293
     2013.59342        71.98479        11.13696
     2013.59616        74.98797        11.52079
     2013.59890        87.57815        11.44965
     2013.60164        83.29033        11.55339
     2013.60438        81.59451        11.66306
     2013.60711        83.85969        11.62749
     2013.60985        78.58087        11.50449
     2013.61259        83.14905        10.97839
     2013.61533        76.67523        11.33702
     2013.61807        83.00141        12.30326
     2013.62080        80.35058        11.32220
     2013.62354        83.39876        11.52079
     2013.62628        80.79694        11.94463
     2013.62902        68.75812        11.10732
     2013.63175        77.19330        11.75494
     2013.63449        72.56148        12.06170
     2013.63723        75.88166        11.13548
     2013.63997        88.50484        11.34443
     2013.64271        77.20702        11.21550
     2013.64544        78.54220        11.29257
     2013.64818        78.88638        11.52968
     2013.65092        75.61155        11.27478
     2013.65366        82.57373        11.36666
     2013.65639        81.04891        11.49263
     2013.65913        73.56909        11.75049
     2013.66187        89.01827        11.39038
     2013.66461        72.50145        11.60674
     2013.66735        81.52063        11.66009
     2013.67008        83.63781        11.58303
     2013.67282        85.33099        12.26177
     2013.67556        82.84917        11.53561
     2013.67830        85.26434        11.57414
     2013.68104        76.43052        11.05693
     2013.68377        85.09470        10.88503
     2013.68651        80.68788        11.21550
     2013.68925        91.10106        11.36370
     2013.69199        78.05324        11.35629
     2013.69472        82.81842        11.27034
     2013.69746        83.68260        11.42891
     2013.70020        76.27378        11.10287
     2013.70294        85.13096        11.16363
     2013.70568        82.47414        11.16808
     2013.70841        67.10631        11.09843
     2013.71115        73.64249        11.03322
     2013.71389        65.12467        11.08657
     2013.71663        80.74585        11.28960
     2013.71937        84.66803        11.14881
     2013.72210        81.08121        10.98580
     2013.72484        72.86839        11.10880
     2013.72758        72.80657        11.78161
     2013.73032        81.34275        11.63786
     2013.73305        81.48993        10.94134
     2013.73579        86.07110        11.27775
     2013.73853        74.55728        11.54154
     2013.74127        68.37846        11.49411
     2013.74403        71.68181        11.84534
     2013.74674        63.83482        11.58007
     2013.75496        68.01236        11.04063
     2013.78234        60.23015        13.69483
     2013.78507        60.65233        12.28548
     2013.78781        59.14851        12.25288
     2013.79055        67.51169        11.87794
     2013.79329        60.88686        12.06319
     2013.79603        70.68204        11.54895
     2013.79876        73.24122        11.45706
     2013.80150        78.55340        11.75642
     2013.80424        76.67858        11.94315
     2013.80698        87.31776        12.21583
     2013.80971        87.92194        11.46744
     2013.81245        86.04912        11.24070
     2013.81519        76.63530        11.36666
     2013.81793        78.12948        11.62897
     2013.82067        69.49266        12.02021
     2013.82340        65.84783        11.21995
     2013.82569        63.07882        14.14979
     2013.82888        87.57519        12.45739
     2013.83162        82.64137        11.47633
     2013.83436        79.60355        12.24695
     2013.83709        90.92573        12.35958
     2013.83983        76.74591        11.93722
     2013.84257        74.51109        11.82014
     2013.84531        62.53727        11.98316
     2013.84804        72.19545        12.09579
     2013.85078        61.42962        12.09134
     2013.85352        68.28580        11.50745
     2013.85626        72.31498        11.48818
     2013.85900        78.49716        11.21254
     2013.86173        73.04734        11.44373
     2013.86447        65.58852        11.53264
     2013.86721        73.24170        11.35184
     2013.86995        74.19688        11.85719
     2013.87269        80.89606        11.31479
     2013.87542        87.54724        11.82163
     2013.87816        74.06842        11.27330
     2013.88090        83.79759        11.90017
     2013.88364        74.96477        11.82311
     2013.88637        67.12695        11.39186
     2013.88911        64.40113        11.34443
     2013.89185        63.96931        11.03470
     2013.89459        70.42649        11.41853
     2013.89733        71.80567        11.14881
     2013.90006        69.13285        11.43928
     2013.90280        54.20803        11.52375
     2013.90554        76.88821        11.21847
     2013.90828        83.50438        11.05397
     2013.91102        66.96156        11.39186
     2013.91375        74.81574        11.82904
     2013.91649        66.80392        11.28812
     2013.91923        58.83810        11.47485
     2013.92197        58.15628        11.28664
     2013.92470        67.80246        10.98580
     2013.92744        67.64964        11.22143
     2013.93018        58.78382        21.93603
     2013.93292        70.08800        10.74868
     2013.93566        78.25517        11.49411
     2013.93839        77.31135        11.31628
     2013.94113        67.59453        11.20809
     2013.94296        63.40732        20.45258
     2013.94661        72.27289        11.58748
     2013.94935        79.97707        10.97098
     2013.95208        73.40325        11.85275
     2013.95482        69.23143        12.68117
     2013.95756        82.20961        11.31924
     2013.96030        70.67279        10.92207
     2013.96303        73.06097        11.10880
     2013.96577        79.23414        11.44373
     2013.96851        50.05332        11.30294
     2013.97125        77.38550        11.26293
     2013.97399        60.24668        11.62304
     2013.97672        53.92486        11.13548
     2013.97946        71.22404        10.87910
     2013.98220        73.01822        11.42594
     2013.98494        66.99640        11.05990
     2013.98767        49.63858        10.88503
     2013.99041        61.67976        11.10880
     2013.99315        52.34793        11.10436
     2013.99589        63.54911        11.24959
     2013.99863        66.09729        11.06879
     2014.00410        70.53765        11.39482
     2014.00684        76.83583        11.62453
     2014.00958        69.40401        11.35333
     2014.01232        69.99519        11.20809
     2014.01505        67.99837        11.39334
     2014.01779        69.24555        11.47781
     2014.02053        68.82273        11.24811
     2014.02327        75.51690        11.85275
     2014.02600        75.49308        12.09431
     2014.02874        73.35526        11.36074
     2014.03148        71.30544        11.15178
     2014.03422        66.46662        10.92948
     2014.03696        68.99180        10.96950
     2014.03969        66.56498        10.80204
     2014.04243        63.96216        11.24218
     2014.04517        79.43734        11.25700
     2014.04791        72.34052        10.88651
     2014.05065        62.19369        11.40519
     2014.05338        66.32387        10.98876
     2014.05612        66.35305        11.44965
     2014.05886        71.87523        11.35925
     2014.06160        68.93241        11.01544
     2014.06433        73.57759        11.34295
     2014.06707        80.23977        11.29405
     2014.06981        78.20395        10.86872
     2014.07255        80.48113        11.36963
     2014.07529        77.02531        11.30887
     2014.07802        62.78249        10.98876
     2014.08076        66.51366        11.00506
     2014.08350        64.30784        10.92948
     2014.08624        63.70402        11.42891
     2014.09017        88.01659        44.79829
     2014.09171        66.29238        11.42742
     2014.09445        69.96056        10.89540
     2014.09711        71.44421        11.61563
     2014.09989        81.83568        11.30146
     2014.10270        72.42333        11.56228
     2014.10540        84.93528        11.61415
     2014.10814        63.84545        11.25552
     2014.11088        73.61963        11.63194
     2014.11362        62.72581        11.12955
     2014.11635        62.32899        11.90017
     2014.11909        47.88617        11.58599
     2014.12183        74.34935        11.41260
     2014.12457        76.52553        16.04819
     2014.12731        67.74071        12.18471
     2014.13004        62.55589        11.32369
     2014.13278        54.96507        12.27511
     2014.13552        58.24625        12.55075
     2014.13826        49.89942        13.51107
     2014.14099        68.27960        11.37111
     2014.14373        53.40278        11.48670
     2014.14647        68.07996        11.49708
     2014.14921        57.14714        11.95945
     2014.15195        66.06732        11.52820
     2014.15468        75.51350        11.97723
     2014.15742        79.85268        11.66602
     2014.16016        73.94986        12.18471
     2014.16290        82.96604        11.83200
     2014.16564        57.51721        11.84682
     2014.16837        67.00139        12.07801
     2014.17111        75.68757        12.24102
     2014.17385        67.33775        12.35958
     2014.17659        69.78993        12.13284
     2014.17932        68.84411        13.32582
     2014.18206        62.09329        12.29734
     2014.18480        71.95647        12.02317
     2014.18754        66.39365        13.26506
     2014.19028        66.10583        12.41589
     2014.19301        61.30601        11.62601
     2014.19575        71.29018        11.77420
     2014.19849        74.99836        12.10616
     2014.20123        73.05054        11.77420
     2014.20397        61.22972        11.89276
     2014.20670        76.79690        11.97871
     2014.20944        67.08108        11.70603
     2014.21218        75.39626        11.98909
     2014.21492        65.88844        12.21138
     2014.21765        68.29262        11.81570
     2014.22039        98.79480        20.45851
     2014.22307        70.37758        12.17433
     2014.22602        78.56922        13.17614
     2014.22861        77.58133        12.19360
     2014.23134        71.42951        12.41886
     2014.23408        74.08169        11.63786
     2014.23682        67.85887        12.29734
     2014.23956        75.06505        12.59966
     2014.24230        71.25123        11.68529
     2014.24501        69.71524        13.94676
     2014.24787        71.05529        12.92717
     2014.25051        73.00877        12.66486
     2014.25325        73.01794        11.77569
     2014.25598        69.59112        12.32253
     2014.25872        74.67430        12.06763
     2014.26146        67.22148        12.01280
     2014.26420        68.55966        11.72678
     2014.26694        65.85884        11.94908
     2014.26967        65.45702        12.28252
     2014.27241        66.82720        12.38922
     2014.27515        66.19338        14.34541
     2014.27789        73.34956        12.30475
     2014.28062        75.04173        12.09134
     2014.28336        80.42891        12.08245
     2014.28610        73.96809        12.37736
     2014.28884        80.19227        12.54631
     2014.29158        66.32045        11.87350
     2014.29431        76.80163        12.39959
     2014.29705        65.53181        12.07801
     2014.29979        73.71699        12.10172
     2014.30253        69.78317        11.79792
     2014.30527        68.59835        12.21879
     2014.30800        67.63453        12.05578
     2014.31074        64.47870        11.96686
     2014.31348        66.97988        11.21699
     2014.31622        71.68606        11.46003
     2014.31895        79.16624        11.66454
     2014.32169        69.06142        12.01428
     2014.32443        62.17360        12.27955
     2014.32717        63.91078        11.81866
     2014.32991        75.26096        11.66898
     2014.33264        77.90714        12.14766
     2014.33538        67.21532        12.04985
     2014.33812        68.27149        12.15359
     2014.34086        76.37167        11.55487
     2014.34360        75.62785        11.25700
     2014.34633        74.12203        11.81273
     2014.34907        69.18521        11.70900
     2014.35181        77.74339        12.01873
     2014.35455        66.67957        11.72678
     2014.35728        65.32575        11.67343
     2014.36002        68.60393        11.72678
     2014.36276        76.97411        12.01428
     2014.36550        78.00429        12.12839
     2014.36824        72.31546        11.47188
     2014.37097        76.94564        11.95056
     2014.37371        79.67082        11.76679
     2014.37645        77.10000        11.77717
     2014.37919        70.97418        11.56080
     2014.38193        73.15036        12.05578
     2014.38466        81.20554        11.79940
     2014.38740        70.16772        11.94611
     2014.39014        84.49290        11.71937
     2014.39288        63.13408        12.01873
     2014.39561        67.51925        11.56821
     2014.39835        71.70543        11.92685
     2014.40109        70.72861        11.29108
     2014.40383        71.42179        11.60081
     2014.40657        75.97797        12.11950
     2014.40930        73.34215        11.44965
     2014.41204        73.63133        11.69862
     2014.41478        77.13351        11.68529
     2014.41752        72.57769        11.01396
     2014.41915        90.00111        37.20619
     2014.43397        86.89496        11.56969
     2014.43668        70.02594        11.93722
     2014.43942        84.62912        11.98464
     2014.44216        70.56430        11.67343
     2014.44490        85.81848        12.11061
     2014.44763        88.13466        11.98761
     2014.45037        79.21084        11.45706
     2014.45311        75.82601        11.52375
     2014.45585        77.56819        11.52227
     2014.45859        66.08337        11.38297
     2014.46132        74.67855        11.09398
     2014.46406        76.49973        11.76235
     2014.46680        72.63291        12.02614
     2014.46954        69.27709        11.91351
     2014.47227        69.13827        11.73419
     2014.47501        86.83845        11.79199
     2014.47775        71.32463        11.49856
     2014.48049        78.39580        12.02910
     2014.48323        75.04098        11.19476
     2014.48596        66.57116        12.18471
     2014.48870        81.41634        11.35629
     2014.49144        83.20752        10.88799
     2014.49418        82.33270        11.48077
     2014.49692        78.69188        11.25848
     2014.49965        77.20006        11.99057
     2014.50239        84.76624        11.70011
     2014.50513        75.07742        11.50300
     2014.50787        95.11360        12.28104
     2014.51060        81.37377        11.33406
     2014.51334        84.98195        11.88387
     2014.51608        75.41613        11.74605
     2014.51882        82.54031        11.70307
     2014.52156        85.26549        11.55636
     2014.52429        79.09167        11.67047
     2014.52703        81.20485        11.55636
     2014.52977        67.84003        11.69418
     2014.53251        80.13521        11.09102
     2014.53525        72.01639        11.41112
     2014.53798        74.36856        11.30887
     2014.54072        98.30974        11.46299
     2014.54346        76.44092        11.03322
     2014.54620        88.19710        11.17845
     2014.54893        83.35728        12.07356
     2014.55167        81.11846        11.25403
     2014.55441        73.73164        11.52375
     2014.55715        69.86582        10.96357
     2014.55989        72.74900        10.82130
     2014.56262        71.58818        10.58863
     2014.56536        75.41436        11.11769
     2014.56810        73.03353        11.20513
     2014.57084        78.02471        11.23477
     2014.57357        75.62589        11.29108
     2014.57631        78.01507        11.66898
     2014.57905        67.19625        11.35036
     2014.58179        78.93143        11.13548
     2014.58453        78.33961        11.16512
     2014.58726        83.03779        11.82755
     2014.59000        82.57697        11.25552
     2014.59274        73.40115        11.03322
     2014.59548        71.63832        11.80088
     2014.59822        75.27250        11.73271
     2014.60095        78.73768        11.46596
     2014.60369        78.67686        11.38593
     2014.60643        71.25604        11.46892
     2014.60917        87.94622        11.76383
     2014.61190        67.45240        12.04689
     2014.61464        79.73958        11.76531
     2014.61738        85.74176        11.48967
     2014.62012        81.41294        11.36963
     2014.62286        84.31712        11.57117
     2014.62559        76.64129        11.50745
     2014.62833        98.64747        11.84386
     2014.63107        90.93465        12.07949
     2014.63381        78.12183        11.63490
     2014.63655        78.15301        11.61860
     2014.63928        69.11619        11.24514
     2014.64202        84.54537        11.53264
     2014.64476        82.79455        11.61119
     2014.64750        87.95873        11.47929
     2014.65023        83.73291        11.50152
     2014.65297        88.38408        11.24366
     2014.65571        77.19026        11.39334
     2014.65845        96.21244        11.91944
     2014.66119        86.94562        11.90758
     2014.66392        83.01280        11.80384
     2014.66666        85.66498        11.46744
     2014.66940        90.55716        11.14881
     2014.67214        75.74334        11.95056
     2014.67488        73.57652        11.71641
     2014.67761        78.90670        11.41112
     2014.68035        78.86088        11.32072
     2014.68309        75.82805        11.70900
     2014.68583        85.53523        11.62897
     2014.68856        84.93241        12.14469
     2014.69130        82.35559        11.50004
     2014.69404        91.73977        11.33110
     2014.69678        87.74195        11.57562
     2014.69952        86.97013        11.51634
     2014.70225        79.20931        11.23773
     2014.70499        84.00749        11.43335
     2014.70773        87.47667        11.43039
     2014.71047        93.02284        11.78458
     2014.71321        87.36802        11.08805
     2014.71594        70.66520        11.78161
     2014.71868        78.91038        11.27478
     2014.72142        84.66156        11.37407
     2014.72416        96.71774        11.67491
     2014.72689        83.30992        11.54746
     2014.72963        71.44910        11.78606
     2014.73237        79.27428        11.88387
     2014.73511        72.13146        11.43483
     2014.73785        76.60864        11.69566
     2014.74058        78.12881        11.74901
     2014.74332        88.46899        12.66338
     2014.74606       106.48817        11.89128
     2014.74880        73.61435        12.27955
     2014.75154        62.35853        12.21435
     2014.75427        80.29571        11.90165
     2014.75701        68.05189        11.49263
     2014.75975        76.65907        12.47221
     2014.76249        84.64125        11.97427
     2014.76522        63.84143        11.39630
     2014.76794        81.74847        12.01280
     2014.77002        81.53099        15.52209
     2014.79004        83.84824        12.35513
     2014.79260        80.94722        12.09431
     2014.79534        73.66740        11.90462
     2014.79808        84.23557        11.87201
     2014.80082        88.82475        11.26885
     2014.80355        73.74493        12.63226
     2014.80629        77.37711        12.28845
     2014.80903        74.65029        12.06911
     2014.81177        83.64247        11.55339
     2014.81451        73.55065        11.46596
     2014.81724        72.75583        11.01544
     2014.81998        73.50501        11.00951
     2014.82272        76.31719        12.52408
     2014.82546        86.63936        11.85719
     2014.82820        72.49054        12.01725
     2014.83093        75.37172        12.11654
     2014.83367        81.50390        11.84386
     2014.83641        79.23308        11.74012
     2014.83915        87.66526        12.59669
     2014.84188        80.80944        12.18767
     2014.84462        87.95762        11.90758
     2014.84736        78.43380        12.04096
     2014.85010        91.03598        11.97427
     2014.85284        81.79616        11.90906
     2014.85557        81.67933        12.92717
     2014.85831        84.56551        12.20397
     2014.86105        72.76169        11.88832
     2014.86379        81.65587        11.47781
     2014.86653        87.32805        12.21435
     2014.86926        80.72423        12.14766
     2014.87200        80.76741        12.15803
     2014.87474        72.51659        11.47337
     2014.87748        79.57977        11.91054
     2014.88021        86.47895        11.71937
     2014.88295        85.72912        12.04837
     2014.88569        87.42230        12.91383
     2014.88843        78.53848        12.06022
     2014.89117        84.10266        12.25584
     2014.89390        75.79684        11.92685
     2014.89664        76.21502        11.91351
     2014.89938        60.38420        12.20842
     2014.90212        75.40038        11.83052
     2014.90485        70.70356        11.92240
     2014.90759        65.86974        12.68561
     2014.91033        81.77392        11.65861
     2014.91307        86.61309        11.55932
     2014.91581        85.55027        11.19772
     2014.91854        94.41545        11.64083
     2014.92128        83.29663        11.66750
     2014.92402        77.54681        11.38593
     2014.92676        77.66099        11.65416
     2014.92950        82.21117        12.01576
     2014.93223        77.60135        11.31776
     2014.93497        68.54553        11.99798
     2014.93771        67.25771        11.76828
     2014.94045        76.40488        11.78458
     2014.94318        83.90506        12.94199
     2014.94592        81.60824        11.43928
     2014.94866        66.45042        11.42594
     2014.95140        68.20360        10.96653
     2014.95414        93.00178        11.34592
     2014.95687        85.05596        11.63045
     2014.95961        91.69014        11.50300
     2014.96235        76.36432        11.77420
     2014.96509        72.98550        11.76087
     2014.96783        65.49768        11.29553
     2014.97056        69.94285        11.66750
     2014.97330        77.14403        11.85719
     2014.97604        66.01121        11.80681
     2014.97878        73.84339        11.48818
     2014.98151        83.16757        11.87498
     2014.98425        72.96575        11.62453
     2014.98699        72.62893        11.46447
     2014.98973        70.54811        11.30590
     2014.99247        70.26829        11.22440
     2014.99520        70.59547        10.94134
     2014.99794        75.69864        11.44965
     2015.00068        72.69482        11.15474
     2015.00342        67.16700        11.27923
     2015.00616        68.71918        11.16660
     2015.00889        68.03536        11.41112
     2015.01163        69.82154        11.41705
     2015.01437        71.76472        11.28071
     2015.01711        71.72390        11.79495
     2015.01984        69.82808        11.23773
     2015.02258        78.63526        11.88980
     2015.02532        84.47444        11.28071
     2015.02806        76.57961        11.55191
     2015.03080        79.75879        11.55043
     2015.03353        68.08497        11.21402
     2015.03627        78.06715        11.18290
     2015.03901        80.41033        11.55487
     2015.04175        76.11451        11.65861
     2015.04449        64.89569        11.71937
     2015.04722        67.01787        11.05842
     2015.04996        66.05905        11.05842
     2015.05270        69.29223        11.15178
     2015.05544        75.23640        11.43483
     2015.05817        75.71358        11.48226
     2015.06091        76.02076        11.47337
     2015.06365        90.08694        11.77569
     2015.06639        79.35712        11.17401
     2015.06913        79.70630        11.22884
     2015.07186        55.23848        11.51486
     2015.07460        75.92366        11.24070
     2015.07734        71.88084        11.73864
     2015.08008        65.61802        11.38000
     2015.08282        62.91919        11.58599
     2015.08555        80.28537        11.57710
     2015.08829        72.21355        11.81125
     2015.09103        72.46073        11.57266
     2015.09377        71.89491        11.35629
     2015.09650        66.44709        12.34031
     2015.09924        71.01927        11.75938
     2015.10191        79.28995        12.39070
     2015.10472        68.53263        11.78902
     2015.10746        72.66281        11.97871
     2015.11019        66.31899        11.74456
     2015.11293        75.68816        13.46068
     2015.11567        73.20134        11.02878
     2015.11841        70.59752        11.26589
     2015.12115        75.26070        11.66306
     2015.12388        64.30888        11.21106
     2015.12662        66.36206        11.49115
     2015.12936        79.14424        11.98612
     2015.13210        78.10142        12.09134
     2015.13483        70.98360        11.56673
     2015.13757        64.99378        11.74012
     2015.14031        64.96495        11.49411
     2015.14305        68.73913        11.51338
     2015.14579        80.20531        12.23658
     2015.14852        80.30849        11.44521
     2015.15126        69.30967        11.69121
     2015.15400        74.25085        11.48670
     2015.15674        75.79503        11.47781
     2015.15948        85.73221        11.73715
     2015.16221        75.76339        11.52672
     2015.16495        73.42157        11.68529
     2015.16769        74.38275        11.64379
     2015.17043        78.83192        11.70307
     2015.17316        80.67410        12.48703
     2015.17590        87.13728        12.21583
     2015.17864        76.73446        11.13400
     2015.18138        89.30964        11.56080
     2015.18412        82.09582        12.15507
     2015.18685        72.77800        12.15803
     2015.18959        81.87618        11.73864
     2015.19233        73.32036        12.22917
     2015.19470        77.30694        12.93458
     2017.20571        89.13841        27.39855
     2017.20657        42.75041        49.52575
     2017.21560        58.55967        11.34888
     2017.21834        59.49885        10.92207
     2017.22108        64.95003        11.12955
     2017.22381        67.53421        11.29108
     2017.22655        53.67039        10.96357
     2017.22929        61.61757        10.72942
     2017.23203        58.73475        10.65977
     2017.23477        58.76892        11.38445
     2017.23750        54.17610        10.93541
     2017.24024        47.07028        11.11621
     2017.24298        58.07746        11.34888
     2017.24572        58.86064        10.59456
     2017.24846        61.90382        10.92652
     2017.25119        53.33700        11.00951
     2017.25393        53.42018        11.33851
     2017.25667        66.99836        10.87762
     2017.25941        52.02954        12.06170
     2017.26214        61.90172        10.83464
     2017.26488        69.89489        10.99024
     2017.26762        72.69407        11.14437
     2017.27036        63.38625        10.80648
     2017.27310        55.43143        11.55487
     2017.27583        58.18561        11.06879
     2017.27857        57.85079        10.93838
     2017.28131        61.08897        10.68644
     2017.28405        49.22315        11.20217
     2017.28679        56.91133        10.77536
     2017.28952        57.02151        11.03026
     2017.29226        66.39168        10.67459
     2017.29500        61.99986        11.16660
     2017.29774        49.72304        11.22884
     2017.30047        54.82522        11.10732
     2017.30321        60.76040        11.04063
     2017.30595        57.11958        11.08213
     2017.30869        53.86176        11.06138
     2017.31143        56.58294        11.04360
     2017.31408        56.44255        11.45706
     2017.31753        67.21469        15.00192
     2017.31964        56.51747        11.36666
     2017.32238        56.79065        11.34443
     2017.32512        49.51683        10.83019
     2017.32785        53.83601        11.37111
     2017.33059        55.16219        11.27923
     2017.33333        59.51537        11.00210
     2017.33607        58.07155        10.92948
     2017.33880        61.99873        11.16808
     2017.34248        81.82850        24.48649
     2017.34428        55.84809        10.99173
     2017.34702        62.81027        10.57085
     2017.34976        59.55544        10.65680
     2017.35249        69.53862        11.07323
     2017.35523        73.38880        11.19920
     2017.35797        62.86298        10.92652
     2017.36071        59.74516        11.07323
     2017.36344        55.54534        10.84353
     2017.36618        54.84252        10.89985
     2017.36892        64.79270        10.73979
     2017.37166        57.86188        10.79759
     2017.37440        63.55706        10.63902
     2017.37713        65.23323        10.93097
     2017.37987        64.55441        11.22884
     2017.38261        64.15359        10.91466
     2017.38535        66.01377        10.72053
     2017.38809        69.62195        11.20217
     2017.39082        75.33313        11.01099
     2017.39356        76.19231        11.65713
     2017.39630        75.70149        11.26589
     2017.39904        74.58367        10.78277
     2017.40177        71.38385        11.09250
     2017.40451        75.25903        11.36666
     2017.40725        70.90820        11.57562
     2017.40999        71.85138        10.65977
     2017.41273        65.71656        11.04952
     2017.41546        63.35274        11.03322
     2017.41820        72.55392        10.75906
     2017.42094        72.00810        11.50300
     2017.42368        60.62328        11.07916
     2017.42642        68.62346        12.43516
     2017.42915        72.83964        11.66602
     2017.43189        76.32182        11.60674
     2017.43463        64.90899        11.44817
     2017.43737        71.02817        10.99024
     2017.44010        72.84035        10.85687
     2017.44284        76.02353        11.15326
     2017.44558        74.64071        11.57414
     2017.44832        74.26289        10.96209
     2017.45106        77.12907        11.06879
     2017.45379        66.78325        11.17401
     2017.45653        69.49943        11.60081
     2017.45927        80.67161        11.16067
     2017.46201        73.34779        10.96802
     2017.46475        65.15796        10.98876
     2017.46748        79.43014        11.37704
     2017.47022        70.37832        11.18883
     2017.47296        71.92450        11.43483
     2017.47570        71.25768        11.08509
     2017.47843        69.19386        11.09102
     2017.48117        79.66404        11.78310
     2017.48391        83.09622        11.65565
     2017.48665        75.67540        11.51190
     2017.48939        71.03758        11.18883
     2017.49212        74.57675        10.91170
     2017.49486        83.33993        11.41112
     2017.49760        78.95311        11.09546
     2017.50034        70.19829        11.28664
     2017.50308        71.55647        11.53561
     2017.50581        73.19165        10.79166
     2017.50855        80.28683        11.22736
     2017.51129        72.81201        11.91499
     2017.51403        75.34919        11.62008
     2017.51676        73.33437        10.89392
     2017.51950        70.52455        11.54598
     2017.52224        80.01272        11.41705
     2017.52498        74.62390        11.22736
     2017.52772        64.93508        11.51338
     2017.53045        72.02226        10.83908
     2017.53319        63.62344        11.27034
     2017.53593        76.18862        11.48374
     2017.53867        88.36080        11.52227
     2017.54141        85.47598        11.32665
     2017.54414        90.75516        11.19624
     2017.54688        73.51834        10.76795
     2017.54962        83.36751        11.15030
     2017.55236        69.78769        11.37407
     2017.55509        82.05787        11.31776
     2017.55783        74.74405        11.36815
     2017.56057        80.93923        11.20958
     2017.56331        79.71741        11.44521
     2017.56605        80.92359        11.28367
     2017.56878        84.30577        11.81570
     2017.57152        75.06995        11.44817
     2017.57426        64.56513        11.75049
     2017.57700        84.56931        11.33110
     2017.57974        77.30348        10.96061
     2017.58247        84.14166        11.46892
     2017.58521        78.66184        10.99024
     2017.58795        80.31302        11.34888
     2017.59069        71.12620        12.05874
     2017.59342        72.32338        11.27182
     2017.59616        79.09956        11.17549
     2017.59890        79.34574        11.33702
     2017.60164        63.69092        11.51486
     2017.60438        77.97710        11.70159
     2017.60711        63.21127        11.53413
     2017.60985        73.41545        11.52968
     2017.61259        75.54263        11.40816
     2017.61533        79.83581        11.54302
     2017.61807        83.10899        11.54302
     2017.62080        77.88817        11.30887
     2017.62354        85.55035        11.27478
     2017.62628        83.80753        12.32994
     2017.62902        65.89371        12.15803
     2017.63175        78.60089        11.75049
     2017.63449        68.09307        10.87613
     2017.63723        78.84124        11.53709
     2017.63997        94.33742        11.70603
     2017.64271        91.42060        11.84830
     2017.64544        77.15178        11.36815
     2017.64818        77.20596        10.94430
     2017.65092        85.53914        11.44965
     2017.65366        83.64732        11.45558
     2017.65639        83.52750        12.07060
     2017.65913        82.48768        11.26885
     2017.66187        93.10586        11.51041
     2017.66461        86.11203        11.80829
     2017.66735        87.30421        11.95352
     2017.67008        85.44939        11.72678
     2017.67282        90.04557        11.73271
     2017.67556        84.29475        11.40371
     2017.67830        92.16493        11.48077
     2017.68104        88.51611        11.42001
     2017.68377        81.76029        11.67788
     2017.68651        98.04847        11.66009
     2017.68925        87.75565        11.44373
     2017.69199        86.84983        11.49115
     2017.69472        84.94300        11.50449
     2017.69746        93.69718        11.64379
     2017.70020        79.99536        12.30623
     2017.70294        86.40654        11.67047
     2017.70568        92.11472        11.95797
     2017.70766        89.85664        16.08672
     2018.94629        84.18542        12.81899
     2018.94866        83.74401        11.16215
     2018.95140        85.73519        12.18915
     2018.95414        87.22637        11.03322
     2018.95687        81.18654        11.10139
     2018.95961        81.14372        11.27182
     2018.96235        67.48690        10.65384
     2018.96509        68.14708        10.81982
     2018.96680        98.78210        25.66317
     2019.41136        62.48927         7.93740
     2019.41410        51.84744         8.10338
     2019.41683        56.16762         8.17748
     2019.41957        58.69980         8.09004
     2019.42231        54.94598         8.07522
     2019.42505        53.70916         8.14636
     2019.42778        62.53134         8.15969
     2019.43052        62.34452         8.63689
     2019.43326        45.32070         7.89739
     2019.43600        49.83288         7.98334
     2019.43874        50.64406         8.19526
     2019.44147        48.31924         8.10931
     2019.44421        53.97841         8.26788
     2019.44695        51.85759         8.31975
     2019.44969        57.69177         8.07670
     2019.45243        57.81695         8.11968
     2019.45516        54.11913         8.23824
     2019.45790        58.60631         8.19081
     2019.46064        43.62449         8.47091
     2019.46338        49.71267         8.65912
     2019.46611        55.74585         8.51388
     2019.46885        54.10903         8.31530
     2019.47159        62.15320         8.22194
     2019.47433        54.25038         8.67986
     2019.47707        56.68856         8.16710
     2019.47980        67.00074         8.31826
     2019.48254        55.65592         8.35383
     2019.48528        48.25010         8.26491
     2019.48802        42.21028         8.15377
     2019.49076        50.06046         8.18341
     2019.49349        59.46564         8.08263
     2019.49623        56.32382         8.17748
     2019.49897        53.45299         8.08856
     2019.50171        61.02617         7.97593
     2019.50444        52.93135         8.35679
     2019.50718        54.40153         7.96407
     2019.50992        57.93571         8.02928
     2019.51266        51.34489         8.04262
     2019.51540        58.64607         7.99668
     2019.51813        56.34325         7.98482
     2019.52087        48.75343         8.12116
     2019.52361        53.97661         8.28714
     2019.52635        53.38379         8.27677
     2019.52908        51.23796         8.51388
     2019.53182        59.90214         8.23972
     2019.53456        53.40932         8.27973
     2019.53730        60.31450         8.30493
     2019.54004        53.38168         8.34049
     2019.54277        56.56986         8.33012
     2019.54551        60.48404         8.63392
     2019.54825        59.41422         8.03521
     2019.55099        53.94240         8.41607
     2019.55373        60.07258         8.32864
     2019.55646        55.89875         8.43682
     2019.55920        58.30093         8.45609
     2019.56194        60.75511         8.10338
     2019.56468        54.03129         8.26491
     2019.56741        52.37347         8.25009
     2019.57015        60.66965         8.07078
     2019.57289        58.44383         8.03817
     2019.57563        59.72701         8.10190
     2019.57837        63.34019         8.15377
     2019.58110        60.00337         7.98927
     2019.58384        67.54555         8.48424
     2019.58658        53.48072         8.22786
     2019.58932        67.37890         8.06929
     2019.59206        71.88708         8.25009
     2019.59479        62.00526         7.94333
     2019.59753        67.12744         8.44127
     2019.60027        64.48162         8.33012
     2019.60301        59.19580         8.06929
     2019.60574        63.54898         8.52277
     2019.60848        61.23416         8.41607
     2019.61122        52.19734         8.01446
     2019.61396        60.45551         8.23231
     2019.61670        63.39369         8.01594
     2019.61943        61.51287         8.11820
     2019.62217        63.52305         8.28566
     2019.62491        66.97823         8.05003
     2019.62765        66.25141         8.04262
     2019.63039        66.93559         8.11079
     2019.63312        54.01177         8.02187
     2019.63586        70.20995         8.72284
     2019.63860        54.31413         8.21304
     2019.64134        60.20031         8.42793
     2019.64407        60.55348         8.83547
     2019.64681        48.54566         8.07522
     2019.64955        57.33184         8.05892
     2019.65229        68.15702         8.01446
     2019.65503        59.10020         8.19378
     2019.65776        61.79638         8.35087
     2019.66050        60.82856         8.06485
     2019.66324        57.12174         8.07374
     2019.66598        62.27992         8.37606
     2019.66872        58.21510         8.15525
     2019.67145        57.62727         8.15525
     2019.67419        47.90245        33.31603
     2019.67695        60.79177         8.44868
     2019.67967        61.66881         8.21897
     2019.68240        61.01399         8.05596
     2019.68514        58.37717         8.37013
     2019.68788        62.72335         8.24268
     2019.69062        63.17853         8.26047
     2019.69336        59.54671         8.05892
     2019.69609        59.76389         8.05596
     2019.69883        57.33007         8.54945
     2019.70157        59.47524         8.08263
     2019.70431        64.38942         8.04706
     2019.70705        54.37560         8.04410
     2019.70978        51.15178         8.16710
     2019.71252        49.34096         8.12116
     2019.71526        60.29914         7.92554
     2019.71800        65.15032         8.43238
     2019.72073        61.26850         8.47387
     2019.72347        52.83168         8.17155
     2019.72621        64.21786         8.26936
     2019.72895        59.94203         8.09301
     2019.73169        52.63121         8.23972
     2019.73442        62.61939         8.29603
     2019.73716        60.99857         8.14043
     2019.73990        59.92675         8.31678
     2019.74264        56.81793         8.06781
     2019.74538        60.64511         7.92554
     2019.74811        56.92229         8.26047
     2019.75085        57.98847         8.24861
     2019.75359        60.89865         8.51240
     2019.75633        54.81883         8.04855
     2019.75906        58.28600         7.97148
     2019.76180        57.40218         8.00557
     2019.76454        60.80736         8.12264
     2019.76728        53.94754         8.40125
     2019.77002        54.69572         8.16118
     2019.77275        54.54690         8.27232
     2019.77549        61.10608         8.14043
     2019.77823        61.30226         8.19526
     2019.78097        66.10044         8.20415
     2019.78346        57.52192         9.07703
     2019.79859        86.71687        24.73546
     2019.80013        58.35669         8.21601
     2019.80287        51.54287         8.38792
     2019.80561        58.48405         8.62651
     2019.80835        50.41623         8.13746
     2019.81108        57.17441         8.19971
     2019.81382        63.18959         8.48869
     2019.81656        63.56176         8.26788
     2019.81930        58.29094         8.12709
     2019.82203        56.12312         8.32864
     2019.82477        63.46030         8.16710
     2019.82751        56.87048         8.17600
     2019.83025        59.42766         8.31085
     2019.83299        58.29184         8.27380
     2019.83572        62.03602         8.19526
     2019.83846        62.91420         8.18933
     2019.84120        56.86638         8.17155
     2019.84394        51.94255         8.37458
     2019.84645        49.63014         9.01923
     2019.94104        63.83978        35.41746
     2019.94250        50.95100         8.06485
     2019.94524        45.91818         9.09481
     2019.94798        52.59336         8.08411
     2019.95071        52.94054         8.51981
     2019.95345        58.67672         8.05003
     2019.95619        62.28790         8.05003
     2019.95893        53.27707         8.07967
     2019.96167        60.47825         8.12264
     2019.96440        51.77843         8.24417
     2019.96714        43.13561         8.33160
     2019.96988        46.66179         8.08560
     2019.97262        54.43997         8.23083
     2019.97535        55.77015         8.14339
     2019.97809        49.55833         8.06485
     2019.98083        53.69451         7.95370
     2019.98357        56.74869         8.01446
     2019.98631        51.69087         8.16562
     2019.98904        51.68104         8.08115
     2019.99178        58.57922         8.10338
     2019.99452        60.82140         8.08708
     2019.99726        58.62358         8.19822
     2020.00000        55.85776         8.16414
     2020.00273        60.70594         8.21156
     2020.00547        54.54612         8.44719
     2020.00821        54.59630         8.34198
     2020.01095        44.66348         8.28418
     2020.01368        42.21366         8.14487
     2020.01642        46.09483         8.33308
     2020.01916        51.49101         8.15673
     2020.02190        49.68319         8.24861
     2020.02464        41.17037         8.43534
     2020.02737        51.20855         8.12413
     2020.03011        42.08973         8.17007
     2020.03285        70.68091         8.47980
     2020.03833        64.04027         7.98482
     2020.04928        44.09698         8.00261
     2020.05201        55.69716         7.99520
     2020.05475        49.05934         7.98334
     2020.05749        45.56352         7.84404
     2020.06023        36.60070         7.82922
     2020.06297        48.16988         8.21156
     2020.06570        45.49406         7.97593
     2020.06844        50.82224         8.14043
     2020.07118        47.35442         8.02928
     2020.07392        45.96959         7.95666
     2020.07666        41.29377         7.86775
     2020.07939        49.41695         8.05003
     2020.08213        44.97913         8.01594
     2020.08487        51.57131         8.17007
     2020.08761        46.38849         7.94036
     2020.09034        51.33767         8.01594
     2020.09308        48.36985         7.91517
     2020.10130        36.97739         7.93888
     2020.10403        40.64856         7.94777
     2020.10677        46.24274         8.12413
     2020.10951        50.16292         7.89590
     2020.11225        52.03110         7.97148
     2020.11498        51.27328         7.86478
     2020.11772        47.03346         8.26491
     2020.12046        47.66064         8.10338
     2020.12320        46.37182         7.98482
     2020.12594        46.50100         8.05151
     2020.12867        40.54118         7.94629
     2020.13141        44.97335         8.14932
     2020.13415        45.73753         8.16562
     2020.13689        54.50971         8.04262
     2020.13958        56.40356         8.30196
     2020.14236        60.32807         7.89887
     2020.14510        51.96725         8.15377
     2020.14784        50.60643         8.05151
     2020.15058        44.63461         7.92110
     2020.15331        42.79879         8.00409
     2020.15605        45.13097         8.00409
     2020.15879        53.38114         7.92554
     2020.16153        43.00432         8.06337
     2020.16427        53.37550         7.99371
     2020.16700        49.60468         7.96704
     2020.16974        51.65586         7.96407
     2020.17208        56.71524         9.79282
     2021.11430        54.73063         8.05892
     2021.11704        57.26181         8.05892
     2021.11978        61.30699         8.05892
     2021.12251        60.73817         8.02039
     2021.12525        72.67035         8.49314
     2021.12799        52.38453         8.31678
     2021.13073        48.79271         8.05299
     2021.13347        45.47089         8.17451
     2021.13620        49.98206         8.09152
     2021.13894        49.97924         8.04114
     2021.14168        39.53742         8.75693
     2021.14442        43.61560         8.23379
     2021.14715        38.60378         8.16118
     2021.14989        43.98896         8.04114
     2021.15537        42.24932         8.33753
     2021.15811        50.43450         8.53611
     2021.16084        53.94768         8.22045
     2021.16358        54.01585         8.16414
     2021.16632        52.95803         8.46053
     2021.16906        51.09421         8.06929
     2021.17180        53.22939         8.08411
     2021.17453        47.67357         8.20415
     2021.17727        47.57475         8.36717
     2021.18001        44.66393         8.16562
     2021.18275        46.93911         8.43682
     2021.18548        43.45729         8.17748
     2021.18822        49.21347         8.07226
     2021.19096        50.45465         8.06633
     2021.19370        50.32082         8.12709
     2021.19644        50.95400         8.00557
     2021.19917        48.77218         8.05299
     2021.20191        51.39936         8.05596
     2021.20465        58.25354         7.99668
     2021.20739        52.07472         8.11968
     2021.21013        57.62890         8.46053
     2021.21286        48.00208         8.25158
     2021.21560        46.30326         8.15525
     2021.21834        47.14844         8.17303
     2021.22108        44.64961         8.01446
     2021.22381        46.51479         8.02483
     2021.22655        52.51297         8.32567
     2021.22929        59.29815         8.09745
     2021.23203        61.19133         7.98038
     2021.23477        49.11551         8.08560
     2021.23750        54.60469         8.10782
     2021.24024        48.27187         8.20267
     2021.24298        56.13805         8.02928
     2021.24572        48.40423         8.01002
     2021.24846        57.73740         8.26788
     2021.25119        58.66158         8.06485
     2021.25393        56.03676         8.23231
     2021.25667        58.02194         8.14339
     2021.25941        51.36112         8.09004
     2021.26214        57.60730         8.09745
     2021.26488        58.03648         8.02187
     2021.26762        54.58866         8.23972
     2021.27036        55.68984         8.86363
     2021.27310        64.52402         8.16859
     2021.27583        49.00420         7.98779
     2021.27857        56.74537         8.23379
     2021.28131        59.58755         8.22490
     2021.28405        57.08573         8.22194
     2021.28679        60.70491         8.20415
     2021.28952        57.99009         9.07110
     2021.29226        56.35127         8.28270
     2021.29500        64.59445         8.23824
     2021.29774        64.40763         8.53611
     2021.30047        62.77381         8.43238
     2021.30321        63.85899         8.26343
     2021.30595        66.44316         8.57761
     2021.30869        74.24934         8.60132
     2021.31143        57.09852         8.19230
     2021.31416        64.49570         8.20563
     2021.31690        63.63588         8.03076
     2021.32021        62.30606        11.81718
     2021.32295        58.80423        11.24811
     2021.32569        56.39241        10.69830
     2021.32842        63.84159        10.81537
     2021.33116        67.33277        10.70571
     2021.33390        66.92895        10.71460
     2021.33664        63.80213        10.79907
     2021.33937        53.57431        10.47008
     2021.34211        60.45449        10.75017
     2021.34485        76.80467        11.71196
     2021.34759        56.97985        10.89540
     2021.35033        53.34303        11.11325
     2021.35306        59.12220        10.90429
     2021.35580        53.05738        10.71312
     2021.35854        55.72456        10.78870
     2021.36128        60.17174        10.90874
     2021.36402        57.27092        10.94134
     2021.36653        64.37650         9.64018
     2021.36892        59.56228         8.01594
     2021.37166        58.61346         8.14784
     2021.37440        57.57164         8.09893
     2021.37770        61.37182        10.90725
     2021.38044        65.99599        11.19476
     2021.38318        60.76217        11.72974
     2021.38592        54.36635        11.36518
     2021.38866        56.54453        11.19920
     2021.39413        56.82789        10.84205
     2021.39687        48.78707        11.13992
     2021.39938        62.03365         9.71279
     2021.40177        68.58643         8.32123
     2021.40451        63.85961         8.44423
     2021.40782        61.85079        10.77388
     2021.41056        64.19696        11.40519
     2021.41330        63.57714        11.17104
     2021.41603        57.26632        10.90281
     2021.41877        55.27950        11.08954
     2021.42151        69.65068        11.41260
     2021.42425        62.66486        10.83760
     2021.42699        63.95004        11.02729
     2021.42972        75.83822        10.82871
     2021.43246        65.94140        10.83019
     2021.43520        57.50258        10.78129
     2021.43797        58.78599        11.39334
     2021.44068        57.34593        11.02285
     2021.44341        61.82611        10.97098
     2021.44615        59.08129        10.84501
     2021.44889        51.77347        10.88354
     2021.45163        47.66765        11.57858
     2021.45436        64.71683        11.24514
     2021.45710        52.85301        11.04360
     2021.45984        68.82219        10.98876
     2021.46258        58.22937        10.67014
     2021.46527        59.03525        10.93689
     2021.46805        62.70272        10.45970
     2021.47079        65.28190        10.96802
     2021.47353        71.14108        11.02285
     2021.47627        55.81626        11.05397
     2021.47901        59.47144        10.99469
     2021.48174        56.35362        10.83464
     2021.48448        55.05080        10.97987
     2021.48722        73.04798        10.90874
     2021.48996        60.08716        11.14141
     2021.49269        57.66934        10.73387
     2021.49520        67.68692         9.77948
     2021.49817        64.38969        11.29108
     2021.50091        63.91487        10.76350
     2021.50365        51.75905        10.73831
     2021.50638        58.17323        10.63606
     2021.50912        50.88641        10.87613
     2021.51186        68.38159        11.56969
     2021.51458        68.91067        11.71641
     2021.51733        60.60395        10.96061
     2021.52007        54.56713        11.13548
     2021.52281        56.60031        10.67755
     2021.52555        55.90948        10.67607
     2021.52829        62.93366        10.87465
     2021.53102        65.31284        10.64495
     2021.53376        67.52202        11.03767
     2021.53650        56.73520        11.26885
     2021.53924        72.28838        11.52968
     2021.54198        65.97056        10.87910
     2021.54471        50.27874        11.50300
     2021.54745        56.72592        11.26737
     2021.55019        63.60610        10.95023
     2021.55293        62.78727        10.96209
     2021.55566        62.79545        11.09843
     2021.55840        57.00763        11.01396
     2021.56114        60.29481        10.95912
     2021.56388        57.48099        11.00062
     2021.56605        59.16317         8.31382
     2021.56878        66.18135         8.30048
     2021.57152        61.96153         8.50351
     2021.57426        64.13271         8.44423
     2021.57700        73.34889         8.94365
     2021.57974        65.64507         8.31085
     2021.58247        60.20325         8.34642
     2021.58521        60.61043         8.32123
     2021.58795        62.60761         8.54945
     2021.59069        65.73479         8.45460
     2021.59342        58.07796         8.38643
     2021.59616        72.21714         8.87104
     2021.59890        57.25632         8.37902
     2021.60164        80.01050         8.54204
     2021.60438        66.81368         8.17896
     2021.60711        72.96386         8.25306
     2021.60985        76.44104         8.33457
     2021.61259        69.82222         8.29011
     2021.61533        62.71240         8.33012
     2021.61807        72.53758         8.26343
     2021.62080        65.97076         8.32419
     2021.62354        63.09193         8.37458
     2021.62628        75.80811         8.90512
     2021.62902        80.14529         8.15969
     2021.63175        62.50547         8.38643
     2021.63449        68.21365         8.54056
     2021.63723        73.34583         8.52426
     2021.63997        75.15401         8.38051
     2021.64271        70.04019         8.44423
     2021.64544        71.59237         8.09597
     2021.64818        68.76055         8.30937
     2021.65092        70.76172         8.32716
     2021.65366        68.27190         8.25158
     2021.65639        72.59508         8.16562
     2021.65913        69.38026         8.38199
     2021.66187        67.98644         8.14043
     2021.66461        69.07262         8.23379
     2021.66735        71.86680         8.21156
     2021.67008        70.56298         8.28418
     2021.67282        73.55916         8.53463
     2021.67556        75.99934         8.57464
     2021.67830        70.70752         8.42793
     2021.68104        77.37169         8.39088
     2021.68377        73.19987         8.49462
     2021.68651        79.49505         8.31530
     2021.68925        74.35423         8.20563
     2021.69199        76.10141         8.26047
     2021.69472        69.01959         8.34939
     2021.69746        75.24977         8.28418
     2021.70020        77.06595         8.28566
     2021.70294        78.15013         8.38792
     2021.70568        84.83331         8.72136
     2021.70841        70.30248         8.44719
     2021.71115        73.38966         8.46498
     2021.71389        71.68884         8.53018
     2021.71663        68.39302         8.46201
     2021.71937        70.89220         8.39829
     2021.72210        66.94438         8.37161
     2021.72484        72.70056         8.49610
     2021.72758        70.43074         8.40125
     2021.73032        75.23292         8.88734
     2021.73305        73.25410         8.38643
     2021.73579        81.96828         8.48721
     2021.73855        72.58059         8.77471
     2021.74127        74.71563         8.52426
     2021.74401        72.85381         8.45609
     2021.74674        72.85499         8.34346
     2021.74948        69.10117         8.50499
     2021.75222        66.47335         8.52870
     2021.75496        74.34153         8.54204
     2021.75706        67.66425        11.60526
     2021.76043        68.54189         8.59243
     2021.76317        70.84607         8.48424
     2021.76591        69.43624         8.37310
     2021.76865        70.44642         8.39088
     2021.77138        72.12560         8.30789
     2021.77412        73.26678         8.70950
     2021.77686        65.70896         8.37754
     2021.77960        73.69814         9.62091
     2021.78234        70.27432         8.44423
     2021.78507        74.01350         8.23824
     2021.78781        73.27268         8.50055
     2021.79055        70.92686         8.28862
     2021.79329        71.95103         8.47832
     2021.79603        74.65521         8.38051
     2021.79876        71.90539         8.33308
     2021.80150        74.96757         8.58502
     2021.80424        72.15775         8.68727
     2021.80698        68.50193         8.44127
     2021.80971        64.66511         8.41756
     2021.81245        73.77229         8.62651
     2021.81519        73.16747         8.30493
     2021.81793        65.77065         8.51685
     2021.82067        62.85483         8.70209
     2021.82340        66.36400         8.81917
     2021.82614        77.01218         8.73766
     2021.82888        70.13036         8.39681
     2021.83162        77.44654         8.49314
     2021.83436        70.38472         8.57761
     2021.83709        68.17690         8.49758
     2021.83983        64.06308         8.57020
     2021.84257        62.14326         8.78805
     2021.84531        65.13244         8.63096
     2021.84804        63.99462         8.49758
     2021.85078        61.83679         8.42941
     2021.85352        62.40197         8.47091
     2021.85626        64.59415         8.45757
     2021.85900        65.20633         8.24417
     2021.86173        59.92451         8.72432
     2021.86447        53.46069         8.58946
     2021.86721        67.03587         8.79546
     2021.86995        60.72705         8.69172
     2021.87269        59.51623         8.78953
     2021.87542        68.69341         8.53018
     2021.87816        58.18059         8.45312
     2021.88090        69.23376         8.30641
     2021.88364        47.15494         8.36272
     2021.88637        58.82412         8.40570
     2021.88911        55.97330         8.28714
     2021.89185        64.08448         8.51833
     2021.89459        60.29766         8.47091
     2021.89733        63.83284         8.30789
     2021.90006        60.23302         8.47832
     2021.90280        57.70620         8.45016
     2021.90554        58.12738         8.34790
     2021.90828        64.56055         8.57168
     2021.91102        63.40773         8.37606
     2021.91375        63.74091         8.39088
     2021.91649        59.06809         8.37606
     2021.91923        69.43427         8.66504
     2021.92197        55.52945         8.71691
     2021.92470        56.59863         8.54352
     2021.92744        62.29781         8.53018
     2021.93018        56.55099         8.63244
     2021.93292        59.64717         8.78064
     2021.93566        67.58935         9.04146
     2021.93839        74.05152         8.84288
     2021.94113        70.75170         9.74540
     2021.94387        64.26788         8.51833
     2021.94661        60.05006         8.63244
     2021.94935        62.81924         8.55241
     2021.95208        65.66442         8.53759
     2021.95482        61.35760         8.50944
     2021.95756        68.60278         8.52277
     2021.96030        62.59396         8.55241
     2021.96303        54.41614         8.52426
     2021.96577        64.98231         8.59984
     2021.96851        61.77249         8.60576
     2021.97125        72.36867         8.53463
     2021.97399        68.95085         8.71988
     2021.97672        67.75203         8.59539
     2021.98220        83.71639         8.92883
     2021.98494        76.70657         8.41607
     2021.98767        73.07475         8.45609
     2021.99041        77.30493         8.42941
     2021.99315        79.26711         8.46201
     2021.99589        77.32828         8.57316
     2022.00136        68.04964         8.62799
     2022.00410        78.11882         8.59391
     2022.01505        53.88154         8.61466
     2022.01779        63.40572         8.61910
     2022.01937        48.96877        23.56471
     2022.02345        49.22537         9.75873
     2022.02600        56.80325         8.71247
     2022.02874        49.63543         8.68579
     2022.03148        54.70261         8.66504
     2022.03422        50.07279         8.68283
     2022.03696        47.69797         8.52426
     2022.03969        45.40515         9.30229
     2022.04243        56.52833         8.62207
     2022.04517        62.21551         8.58205
     2022.04791        63.29569         8.43534
     2022.05065        53.96787         8.42793
     2022.05338        54.71704         8.56723
     2022.05612        56.32722         8.52277
     2022.05886        54.11540         8.52277
     2022.06160        54.59858         8.47387
     2022.06433        56.04876         8.45609
     2022.06707        57.89694         8.48721
     2022.06981        65.02812         8.57613
     2022.07255        56.27130         8.38643
     2022.07529        60.78848         8.31826
     2022.07802        59.29966         8.42941
     2022.08076        67.43283         8.45905
     2022.08350        56.33301         8.42941
     2022.08624        57.76619         8.34939
     2022.08898        60.70937         8.40718
     2022.09171        52.53855         8.30937
     2022.09445        57.89673         8.33457
     2022.09719        53.74691         8.35828
     2022.09993        52.59109         8.67986
     2022.10266        56.12827         8.66060
     2022.10540        56.99745         8.26788
     2022.10814        59.81263         8.34494
     2022.11088        60.48180         8.40274
     2022.11362        66.44998         8.31678
     2022.11635        72.25016         8.43534
     2022.11909        65.89534         8.36420
     2022.12183        64.23552         8.38940
     2022.12457        70.74970         8.51685
     2022.12731        61.12888         8.31678
     2022.13004        59.69006         8.38199
     2022.13278        55.83924         8.39977
     2022.13552        59.94942         9.30673
     2022.13826        66.29159         8.30493
     2022.14099        62.66677         8.37606
     2022.14373        58.98695         8.32419
     2022.14647        62.38013         8.39236
     2022.14921        67.67231         8.64281
     2022.15195        61.28849         8.69172
     2022.15468        64.73767         8.41163
     2022.15742        58.33185         8.31826
     2022.16016        58.78803         8.34939
     2022.16290        55.49721         8.37902
     2022.16564        58.13939         8.32271
     2022.16837        59.00056         8.27677
     2022.17111        60.12674         8.42497
     2022.17385        59.65392         8.38940
     2022.17659        65.61210         8.32123
     2022.17932        56.81428         8.40274
     2022.18206        58.63546         8.30789
     2022.18480        57.84364         8.35531
     2022.18754        59.86482         8.47980
     2022.19028        63.52000         8.50796
     2022.19301        62.98118         8.55834
     2022.19575        61.10735         8.26491
     2022.19849        60.51553         8.30789
     2022.20123        60.60471         8.59243
     2022.20397        63.99889         8.30048
     2022.20670        61.72107         8.56575
     2022.20944        69.39525         8.47832
     2022.21218        65.62143         8.66060
     2022.21492        57.50361         8.41015
     2022.21765        48.75279         8.42941
     2022.22039        55.50097         8.42052
     2022.22313        64.11115         8.43089
     2022.22587        51.83432         8.48128
     2022.22861        64.42550         8.52722
     2022.23134        69.43568         8.63689
     2022.23408        68.90586         8.40422
     2022.23682        70.03604         8.77471
     2022.23956        65.16122         8.35087
     2022.24230        64.57843         9.14965
     2022.24451        69.54295        11.79051
     2022.24778        62.73479         9.50235
     2022.25051        62.47594         9.36601
     2022.25325        64.16111         8.74803
     2022.25598        54.99729         8.53463
     2022.25872        59.34047         8.65912
     2022.26146        60.51665         8.48869
     2022.26420        65.63683         8.45757
     2022.26694        69.90001         8.74211
     2022.26967        61.21019         8.57909
     2022.27789        65.18573         8.55834
     2022.28062        65.90591         8.48128
     2022.28336        65.18508         8.39977
     2022.28610        59.48226         8.68134
     2022.28884        63.01944         8.81176
     2022.29158        57.80062         8.40125
     2022.29431        58.34680         8.32419
     2022.29705        55.23898         9.04443
     2022.29979        60.63016         8.54797
     2022.30253        61.64934         8.62058
     2022.30527        65.27352         8.55538
     2022.30800        58.15770         8.40570
     2022.31074        58.60987         8.36272
     2022.31348        54.29105         8.34198
     2022.31622        57.34023         8.41904
     2022.31895        41.09541         8.65319
     2022.32169        59.90559         8.62651
     2022.32443        60.03977         8.34198
     2022.32717        48.05995         8.40422
     2022.32991        61.88813         8.36124
     2022.33264        54.04231         8.66504
     2022.33538        60.23549         8.75841
     2022.33812        57.42166         8.70506
     2022.34086        63.97784         8.47387
     2022.34360        58.27402         8.61910
     2022.34633        63.03620         8.58057
     2022.34907        59.89338         8.44423
     2022.35181        60.56356         8.54649
     2022.35455        57.27174         8.30789
     2022.35728        57.96492         8.35531
     2022.36002        54.60710         8.34790
     2022.36276        64.28828         8.62355
     2022.36550        58.34046         8.38347
     2022.36824        60.09563         8.64874
     2022.37097        52.89281         8.51833
     2022.37371        57.11399         8.60576
     2022.37645        57.01217         8.40866
     2022.37919        59.33135         8.78805
     2022.38193        57.13153         8.62503
     2022.38466        56.82671         8.35383
     2022.38740        39.84789         8.56279
     2022.39014        68.30907         8.62207
     2022.39288        51.31125         8.62207
     2022.39561        54.03342         8.51685
     2022.39835        66.53060         8.38347
     2022.40109        60.80778         8.68875
     2022.40383        57.85196         8.47091
     2022.40657        62.35514         8.40718
     2022.40930        56.26432         8.54056
     2022.41204        62.97850         8.48276
     2022.41478        59.85568         8.46794
     2022.41752        61.88586         8.77323
     2022.42026        52.33204         8.84881
     2022.42299        59.58622         8.40125
     2022.42573        50.24039         8.80731
     2022.42847        65.09357         8.23824
     2022.43121        61.73675         8.50944
     2022.43394        67.96393         8.86363
     2022.43668        55.49611         8.50647
     2022.43942        59.32329         8.45164
     2022.44216        66.97047         8.65022
     2022.44490        75.49665         8.46053
     2022.44763        66.62983         8.37754
     2022.45037        57.82201         8.29603
     2022.45311        54.35318         8.52870
     2022.45585        56.69136         8.55093
     2022.45859        50.75154         8.40570
     2022.46092        58.74293        10.01659
     2022.46411        55.85827         8.61614
     2022.46680        56.21608         8.34642
     2022.46954        62.18326         8.34494
     2022.47189        42.39977        10.00622
