# ================= DQRFIT RESULTS ================
# INPUT FILE: series/CSTL.rad
# OUTPUT: LDETRENDED
# FILTER FUNCTION: f(t)
# f(t)=+line(t)+annual(t)+jumps(t)
# line(t)=+P 1+P 2*t
# annual(t)=+P 3*sin(2*pi*t+P 4)
# jumps(t)=+P 5*heav(t-2014.3247  )
# heav(t)=(t<0?0:1)
# TOTAL OBSERVATIONS MTOT= 1003
# INITIAL TIME INTERVAL= 2016.4816 - 2013.5633 =  2.9183
# TOTAL OBSERVATIONS AFTER PREFILTER M=  978
# TIME-SPAN= 2016.4816 - 2013.5633 =  2.9183
# OBSERVATIONS: USED M=   978 REJECTED MTOT-M=    25 %USED=   97.5075
# N=  5 PARAMETERS
# MAXSIG= 175.00000
# MAXRES=  31.13481
# SCALE FACTOR FOR LENGTHS: SCL=  10.00000
# SCALE FACTOR FOR SIGMAS: SCLSIG=   1.00000
# CHI^2=   1302.202 DOF=   973 CHI^2/DOF=   1.33834
# RMS=      6.677 SDEV=      6.680 MEAN=    0.11257
#  P #       PARAMETER +-    SIGMA %error PARAMETER NAME
# P 1 =     -7186.00811 +-  837.130  11.65 YZERO                              
# P 2 =         3.54148 +-    0.416  11.74 SLOPE                              
# P 3 =         7.70395 +-    0.314   4.07 ANNUAL AMPLITUDE                   
# P 4 =        -2.60740 +-    0.050   1.93 ANNUAL PHASE                       
# P 5 =        54.03667 +-    0.786   1.45 OFFSET 2014.3247                   
#       T            LDETRENDED       SIG_OBS
     2013.56331        -3.50117         6.31417
     2013.56605         3.70213         6.29335
     2013.56878        13.53644         6.26558
     2013.57152         4.14074         6.16840
     2013.57426         5.51305         6.16609
     2013.57700         6.56335         6.31648
     2013.57974        -1.76535         6.16031
     2013.58247         6.38396         6.23666
     2013.58521         7.65326         6.17535
     2013.58795         2.94456         6.25170
     2013.59069         5.47887         6.25054
     2013.59342        -1.94983         6.20195
     2013.59616         2.27548         6.26442
     2013.59890         1.50978         6.21005
     2013.60164         4.69808         6.22856
     2013.60438         4.36339         6.23666
     2013.60711        -2.85831         6.25286
     2013.60985         3.83500         6.29566
     2013.61259         4.37730         6.29913
     2013.61533         1.53360         6.43101
     2013.61807         8.44991         6.31533
     2013.62080         5.87621         6.22625
     2013.62354        10.92452         6.25980
     2013.62628         7.51282         6.23550
     2013.62902        -2.28488         6.23319
     2013.63153         9.29222         6.65313
     2013.63538        13.08760        11.69938
     2013.63723         7.68904         6.17766
     2013.63997        13.54434         6.19038
     2013.64271         6.37064         6.25401
     2013.64544        10.84295         6.13023
     2013.64818         7.31825         6.19964
     2013.65092         3.71856         6.14064
     2013.65366        10.48486         6.40556
     2013.65639         7.82216         6.16840
     2013.65913        14.52547         6.30029
     2013.66187         3.67377         6.29797
     2013.66461         6.50808         6.13717
     2013.66735         6.17938         6.23435
     2013.67008        15.50468         6.20889
     2013.67282        11.12999         6.35466
     2013.67556        15.12329         6.26095
     2013.67830         8.37660         6.24938
     2013.68104         7.73490         6.37317
     2013.68377        12.22420         6.10015
     2013.68651         6.68451         6.07586
     2013.68925         3.25281         6.13601
     2013.69199         9.19511         6.13486
     2013.69472         5.83642         6.15105
     2013.69746         5.15672         6.15684
     2013.70020         7.49203         6.11403
     2013.70294         8.35433         6.16840
     2013.70568        12.67463         6.12213
     2013.70841         9.54594         6.29797
     2013.71115         9.94124         6.34309
     2013.71389        10.98655         6.14642
     2013.71663         5.09685         6.14295
     2013.71937         8.72915         6.08742
     2013.72210        19.35746         6.22509
     2013.72484        11.35876         6.10940
     2013.72758        12.04607         6.14411
     2013.73032        15.01037         6.15684
     2013.73305         5.69267         6.03189
     2013.73579         8.07398         6.04115
     2013.73853         8.32928         6.05272
     2013.74127        10.50459         6.05735
     2013.74401        15.49989         6.30839
     2013.74674        10.88819         6.14642
     2013.74948        10.68150         6.03189
     2013.75222        -2.23720         6.26905
     2013.75496         1.33411         6.07007
     2013.75770        -4.97959         6.66007
     2013.76043         0.45971         6.13601
     2013.76317         2.33002         6.07586
     2013.76591         3.47032         6.29566
     2013.76863         7.87168         6.23203
     2013.77235         2.19850        13.09571
     2013.77412        12.74323         6.19733
     2013.77686         1.97054         6.16609
     2013.77960         5.51884         6.15105
     2013.78182        -3.60904         7.51037
     2013.78525        -1.29616         6.77576
     2013.78781        -4.14025         6.21931
     2013.79055         5.89006         6.18460
     2013.79329        -0.10964         6.11750
     2013.79603         2.18466         6.09784
     2013.79876         3.31797         6.14989
     2013.80150         0.27127         6.25864
     2013.80424         1.62858         6.28293
     2013.80698         1.07788         6.10709
     2013.80971         7.35418         6.09089
     2013.81245         2.83149         6.16725
     2013.81519         5.61979         6.11635
     2013.81793         2.38710         6.14642
     2013.82067        10.16240         6.27599
     2013.82340         5.44970         6.14874
     2013.82569         6.09362         7.62027
     2013.82888         9.23431         6.20311
     2013.83162         6.57362         6.16956
     2013.83436         0.73592         6.30839
     2013.83709         4.18122         6.27715
     2013.83983         8.53853         6.23088
     2013.84257         3.42183         6.11982
     2013.84531         3.70414         6.19038
     2013.84804       -12.10056         6.14874
     2013.85078        -3.95126         6.12791
     2013.85352         3.54005         6.26095
     2013.85626        -1.25565         6.30029
     2013.85900         3.41866         6.09205
     2013.86173        -1.96704         6.15799
     2013.86447        -2.02374         6.15221
     2013.86721         5.36757         6.07701
     2013.86995         3.00987         6.12097
     2013.87269         8.04018         6.16956
     2013.87542         4.01648         6.20427
     2013.87816         7.83878         6.12907
     2013.88090         3.79309         6.36160
     2013.88364         0.26839         6.45878
     2013.88637         0.27969         6.15221
     2013.88911        -5.40300         6.15221
     2013.89185        -8.40270         6.10940
     2013.89459        -9.00139         6.07933
     2013.89733        -2.21009         6.07123
     2013.90006        -3.54879         6.19848
     2013.90280        -4.65348         6.23550
     2013.90554        -2.77218         6.12097
     2013.90828         6.07413         6.11982
     2013.91102         2.59443         6.18113
     2013.91375        -4.68927         6.13601
     2013.91649        -5.68296         6.13370
     2013.91923        -1.45766         6.22278
     2013.92197        -9.38935         6.18576
     2013.92470        -7.75505         6.09205
     2013.92744        -8.94575         7.14711
     2013.93007        -7.13604         6.60570
     2013.93663        -5.81429        10.61771
     2013.93839        -2.12953         6.00876
     2013.94113        -0.14723         6.09784
     2013.94296        -1.58169        10.50781
     2013.94661        -0.23662         6.33152
     2013.94935        -5.38431         6.06429
     2013.95208        -3.40901         6.05735
     2013.95482        -2.90071         6.54439
     2013.95756        -0.18940         6.06197
     2013.96030         2.45988         6.20427
     2013.96303         2.12721         6.14295
     2013.96577         3.35751         6.08858
     2013.96851         6.83481         6.09205
     2013.97125         0.07712         6.10593
     2013.97399        -9.17558         6.14989
     2013.97672       -13.85528         6.12097
     2013.97946       -21.52697         6.17997
     2013.98220       -15.20267         6.13023
     2013.98494       -18.63136         6.09784
     2013.98767       -20.06506         6.14874
     2013.99041       -25.40876         6.17419
     2013.99315       -21.70545         6.19848
     2013.99589       -12.90715         6.11403
     2013.99863       -16.04784         6.16262
     2014.00410        -4.26924         6.10131
     2014.00684       -13.88893         6.19038
     2014.00958        -0.69263         6.21352
     2014.01232        -6.26932         6.25633
     2014.01505        -5.80202         6.24013
     2014.01779        -0.40172         6.20195
     2014.02053        -4.23741         6.11287
     2014.02327        -0.52911         6.36044
     2014.02600         4.59320         6.30376
     2014.02874         1.28450         6.28640
     2014.03148         6.89180         6.13254
     2014.03422        -6.84989         6.16493
     2014.03696         3.20041         6.15568
     2014.03969        -4.62728         6.19154
     2014.04243        -6.72498         6.52472
     2014.04517         0.95032         6.28293
     2014.04791        -2.00137         6.09321
     2014.05065        -0.33007         6.10246
     2014.05338        -1.62676         6.15915
     2014.05612        -6.66246         6.10478
     2014.05886        -5.57916         6.08742
     2014.06160        -2.01785         6.08048
     2014.06433        -3.16555         6.25286
     2014.06707         2.32476         6.30839
     2014.06981         3.04406         6.20542
     2014.07255         0.04136         6.18807
     2014.07529        -2.96833         6.13601
     2014.07802        -3.32103         6.37433
     2014.08076        -0.82973         6.12097
     2014.08350         1.72858         6.16262
     2014.08624        -2.42512         6.22625
     2014.08779         2.91440        19.61812
     2014.09253         5.88861         9.91896
     2014.09445        -4.92221         6.12097
     2014.09718        -7.32588         6.24244
     2014.09995         0.06232         6.34309
     2014.10266         2.88671         6.27484
     2014.10540         1.12401         6.04115
     2014.10814        -1.50269         6.15799
     2014.11088        -3.35038         6.32574
     2014.11362        -9.25508         6.13833
     2014.11635        -0.86077         6.21005
     2014.11909         0.06853         6.13023
     2014.12183        -0.85917         6.22393
     2014.12457        -0.53686         6.31533
     2014.12731        -4.47056         6.25980
     2014.13004        -0.46825         6.12676
     2014.13278        -2.14995         6.31880
     2014.13552        11.08135         6.37317
     2014.13826        -4.02634         7.08927
     2014.14099         3.45396         6.07701
     2014.14373        -1.10173         6.10362
     2014.14647        -5.26043         6.12791
     2014.14921        -9.76013         6.09437
     2014.15195        -9.11982         6.16146
     2014.15468        -2.75352         6.12676
     2014.15742         1.47079         6.13601
     2014.16016        -1.56991         6.38011
     2014.16290        -5.52761         6.22972
     2014.16564        -9.87230         6.10593
     2014.16837       -21.56000         6.33846
     2014.17111       -19.97170         6.30144
     2014.17385        -1.85139         6.37086
     2014.17659        -4.20209         6.28178
     2014.17932         3.43022         6.52009
     2014.18206        -5.14248         6.36970
     2014.18480        -0.51518         6.20774
     2014.18754        -6.97787         6.58719
     2014.19028        -7.57557         6.42407
     2014.19301        -4.91226         6.21005
     2014.19575        -0.65396         6.23897
     2014.19849        -1.73966         6.27831
     2014.20123       -13.21535         6.33384
     2014.20311       -11.28303        10.19777
     2014.20721         1.36046         7.87247
     2014.20944        -6.74844         6.18460
     2014.21218        -6.13214         6.26789
     2014.21492        -8.86583         6.32458
     2014.21765        -7.80853         6.16840
     2014.22039        -7.86222         9.30119
     2014.22313       -12.65192         6.25517
     2014.22587        -8.68462         6.17997
     2014.22861        -7.39031         6.20080
     2014.23134         1.22599         6.21584
     2014.23408        -2.33770         6.21815
     2014.23682        -2.99040         6.18923
     2014.23956       -13.09510         6.35119
     2014.24230        -8.54479         6.12213
     2014.24500        -8.53937         8.69500
     2014.24787        -6.27354         6.77576
     2014.25051        -6.35388         6.20195
     2014.25325        -7.25358         6.25864
     2014.25598        -4.19827         6.44952
     2014.25872        -4.36897         6.68321
     2014.26146        -0.42766         6.40672
     2014.26420        -9.81836         6.22393
     2014.26694       -10.19306         6.20889
     2014.26967        -6.29975         6.34078
     2014.27241        -5.16045         6.38937
     2014.27515        -5.56615         6.87294
     2014.27789       -11.96784         6.47613
     2014.28062       -10.41954         6.27368
     2014.28336        -5.17823         6.33731
     2014.28610        -1.11993         6.43795
     2014.28884        -8.00163         6.51662
     2014.29158        -8.63432         6.24360
     2014.29431        -4.30202         6.27599
     2014.29705        -8.20871         6.27137
     2014.29979       -13.33141         6.22278
     2014.30253        -5.58211         6.29450
     2014.30527        -6.49180         6.20427
     2014.30800        -2.45350         6.36970
     2014.32717        41.23163         6.43217
     2014.34633        42.79076         6.23203
     2014.36002        36.89828         6.80468
     2014.36276        39.13758         6.28756
     2014.38740        48.67732         6.23203
     2014.39014        59.38262         6.38590
     2014.39288        51.42192         6.56058
     2014.39561        52.79523         6.26211
     2014.39835        59.87753         6.40556
     2014.40109        43.74484         6.35929
     2014.40383        46.64714         6.35235
     2014.40657        44.81344         6.37433
     2014.40930        42.06875         6.40903
     2014.41204        42.06805         6.41944
     2014.41478        49.78136         6.36160
     2014.41752        50.35566         6.41135
     2014.42026        54.77896         6.48886
     2014.42299        49.68927         6.31417
     2014.42573        62.78457         6.43911
     2014.42847        45.98388         6.34309
     2014.43121        49.62318         6.33384
     2014.43397        49.65338         7.95460
     2014.43669        77.82277        13.87775
     2014.43897        52.87467        10.65704
     2014.44216        49.76138         7.15868
     2014.44490        54.02770         7.22115
     2014.44763        63.59800         6.63346
     2014.45037        47.53931         6.24591
     2014.45311        57.17761         6.38821
     2014.45585        54.98692         6.21352
     2014.45859        44.62522         6.18460
     2014.46132        56.34652         6.28756
     2014.46406        52.59383         6.26442
     2014.46680        48.82813         6.32921
     2014.46954        46.90143         6.38705
     2014.47159        53.40715         9.14155
     2014.47502        54.02601         6.34078
     2014.47775        52.29135         6.30839
     2014.48049        54.55865         6.48191
     2014.48323        57.02095         6.39052
     2014.48596        59.48626         6.37317
     2014.48870        62.59056         6.41482
     2014.49144        56.94387         6.26558
     2014.49418        46.36117         6.23550
     2014.49692        48.51147         6.21005
     2014.49965        52.04678         6.20080
     2014.50239        51.41408         6.45415
     2014.50513        54.93539         6.44605
     2014.50787        53.73469         6.74452
     2014.51060        51.93699         6.27831
     2014.51334        50.46530         6.31648
     2014.51608        53.61960         6.27252
     2014.51882        67.96191         6.43564
     2014.52156        67.70721         6.39515
     2014.52429        64.41751         6.50274
     2014.52703        50.52182         6.34656
     2014.52977        52.50712         6.40093
     2014.53210        63.37786         7.43286
     2014.53606        56.70983         9.49439
     2014.53798        65.23403         6.33152
     2014.54072        63.23934         6.40209
     2014.54346        45.90864        19.42608
     2014.54620        70.92595         6.38242
     2014.54893        70.73525         6.50158
     2014.55167        59.51555         6.31533
     2014.55441        59.16786         6.36391
     2014.55715        46.47316         6.33037
     2014.55989        58.25746         6.55017
     2014.56262        63.64777         6.26789
     2014.56536        61.96007         6.36970
     2014.56810        54.96038         6.27599
     2014.57084        53.28768         6.28293
     2014.57357        51.30998         6.35119
     2014.57631        62.14429         6.44258
     2014.57905        61.69059         6.45184
     2014.58179        53.14190         6.35235
     2014.58453        62.52220         6.51546
     2014.58726        62.85050         6.62999
     2014.59000        64.13781         6.35350
     2014.59274        61.53011         6.24360
     2014.59548        56.53042         6.37201
     2014.59822        63.71572         6.30491
     2014.60095        58.00202         6.39862
     2014.60369        66.13133         6.37086
     2014.60643        52.71963         6.23550
     2014.60917        57.54794         6.34193
     2014.61190        61.02324         6.37664
     2014.61464        60.51354         6.40209
     2014.61738        60.96085         6.54091
     2014.62012        65.22415         6.54207
     2014.62286        66.30946         6.25170
     2014.62559        66.79876         6.26095
     2014.62833        59.84106         6.45878
     2014.63107        74.86537         6.41713
     2014.63381        84.59767         6.86946
     2014.63655        70.76698         6.51315
     2014.63928        66.57528         6.39746
     2014.64202        58.86358         6.33499
     2014.64476        60.22389         6.34425
     2014.64750        59.72219         6.28178
     2014.65023        58.24450         6.28872
     2014.65297        65.69380         6.50158
     2014.65571        78.78310         6.57678
     2014.65845        73.83841         6.31417
     2014.66119        69.42171         6.37433
     2014.66392        80.09401         6.39284
     2014.66632        69.73953         6.95739
     2014.67020        62.26878        10.24751
     2014.67214        69.20093         6.40788
     2014.67488        58.70223         6.31070
     2014.67761        52.18253         6.22046
     2014.68035        60.39684         6.20658
     2014.68221        57.23324        10.47657
     2014.68661        62.60767        10.33312
     2014.68856        63.59575         6.36044
     2014.69130        66.79105         6.39746
     2014.69404        53.37036         6.11750
     2014.69678        54.91066         6.25864
     2014.69952        62.08597         6.19501
     2014.70225        59.83527         6.16609
     2014.70499        59.17957         6.28178
     2014.70773        63.95388         6.16840
     2014.71047        65.63518         6.20889
     2014.71321        65.54949         6.19386
     2014.71594        71.50879         6.30723
     2014.71868        60.82609         6.15799
     2014.72142        61.74440         6.16378
     2014.72416        61.58670         6.21815
     2014.72689        74.42001         6.40672
     2014.72963        62.41431         6.39052
     2014.73237        61.86461         7.38774
     2014.73511        57.50592         7.34725
     2014.73785        61.86222         6.20658
     2014.74058        56.02753         6.72601
     2014.74332        67.27583         6.52472
     2014.74690        57.57817        11.40322
     2014.74880        62.69144         6.28872
     2014.75154        68.40874         6.60223
     2014.75427        64.50304         6.38590
     2014.75701        62.36735         6.35697
     2014.75975        60.65765         9.48514
     2014.76249        65.25296         6.35119
     2014.76522        63.88526         6.41597
     2014.76791        58.36177         6.40440
     2014.77002        56.68429         8.44859
     2014.79015        65.70999         7.03721
     2014.79260        56.57730         6.59066
     2014.79534        63.02260         6.21237
     2014.79808        67.86591         6.42291
     2014.80082        58.77421         6.21815
     2014.80355        66.86752         6.45299
     2014.80629        62.11284         6.54554
     2014.80903        61.53712         6.50852
     2014.81177        89.82243        17.08111
     2014.81337        62.77674        14.86687
     2014.82078        63.55053        10.83867
     2014.82272        62.53164         6.43217
     2014.82546        59.39395         6.33499
     2014.82820        52.75025         6.18807
     2014.83093        55.11956         6.14874
     2014.83367        61.03386         6.27021
     2014.83641        60.16316         6.23435
     2014.83789        75.65693        23.66946
     2014.86105        50.92790         6.22278
     2014.86379        47.53920         6.23666
     2014.86653        53.39451         6.19154
     2014.86926        52.68781         6.21699
     2014.87200        51.43911         6.14064
     2014.87474        52.23942         6.22509
     2014.87748        51.43072         6.20542
     2014.88021        54.95303         6.31070
     2014.88295        56.22133         6.13254
     2014.88569        58.56963         6.59876
     2014.88843        60.57394         6.39978
     2014.89117        69.75724         6.47497
     2014.89390        59.30355         6.27484
     2014.89664        54.81685         6.25401
     2014.89938        48.60415         6.23550
     2014.90212        37.05446         6.23088
     2014.90485        47.37276         6.22740
     2014.90759        50.09207         6.99903
     2014.91033        63.89537         6.28756
     2014.91307        56.80667         6.14989
     2014.91581        54.97698         6.23782
     2014.91854        60.02228         6.11750
     2014.92128        52.29859         6.10362
     2014.92402        58.28589         6.08395
     2014.92676        52.27019         6.31648
     2014.92950        40.83550         6.73643
     2014.93223        49.27480         6.13138
     2014.93497        47.09311         6.28293
     2014.93771        47.76941         6.17650
     2014.94045        62.69971         6.18576
     2014.94318        57.17702         6.48539
     2014.94592        61.41034         6.83939
     2014.94866        52.23363         6.07817
     2014.95140        46.01493         5.99140
     2014.95414        55.03323         6.09205
     2014.95687        57.90054         6.08742
     2014.95961        60.81384         6.10478
     2014.96235        51.19814         6.22856
     2014.96509        38.56045         6.23782
     2014.96783        47.89275         6.07007
     2014.97056        46.18206         6.21121
     2014.97330        47.35636         6.16378
     2014.97604        44.49366         6.14989
     2014.97878        38.73397         6.12560
     2014.98151        60.82427         6.22972
     2014.98425        48.04158         6.14527
     2014.98699        55.26988         6.09899
     2014.98973        41.87418         5.97984
     2014.99247        37.07549         6.38011
     2014.99520        27.74879         6.00760
     2014.99794        37.65210         6.02033
     2015.00068        37.94440         5.95207
     2015.00342        36.83770         5.93587
     2015.00616        35.53401         5.96248
     2015.00889        41.04231         6.07586
     2015.01437        26.32492         6.03768
     2015.01711        43.51022         6.29450
     2015.01984        53.57153         6.08280
     2015.02258        51.05983         6.18229
     2015.02532        53.81514         6.14874
     2015.02806        48.08144         6.23088
     2015.03080        54.49374         6.10478
     2015.03353        48.56805         6.01801
     2015.03627        49.55935         5.99603
     2015.03901        54.65566         6.07238
     2015.04175        53.38396         6.20311
     2015.04449        53.58826         6.24938
     2015.04722        51.89557         6.19501
     2015.04996        56.81987         6.14758
     2015.05270        50.70817         6.08742
     2015.05544        53.21648         6.15105
     2015.05817        56.33778         6.11172
     2015.06091        52.05209         6.38590
     2015.06365        56.30739         6.36854
     2015.06639        57.28069         6.13717
     2015.06913        50.49500         6.19733
     2015.07186        55.48130         6.28525
     2015.07460        54.33561         6.22393
     2015.07734        48.63291         6.18344
     2015.08008        44.70321         6.17650
     2015.08282        55.04052         6.16146
     2015.08555        45.66482         6.07701
     2015.08829        51.13113         6.21468
     2015.09103        52.12943         6.19501
     2015.09377        54.79773         6.13486
     2015.09650        47.39904         6.77807
     2015.09924        58.08734         9.60545
     2015.10198        50.23065         9.99300
     2015.10472        56.49195         6.02033
     2015.10746        51.94525         6.09089
     2015.11019        48.55456         6.27484
     2015.11293        42.34586        15.40019
     2015.11567        53.64117         6.23088
     2015.11841        43.67947         6.06660
     2015.12115        51.16177         6.41019
     2015.12388        45.00908         6.39631
     2015.12662        45.56838         6.06313
     2015.12936        46.98569         6.07007
     2015.13210        47.80199         5.99835
     2015.13483        51.04329         6.10940
     2015.13757        51.65960         6.07123
     2015.14031        44.27390         5.99372
     2015.14305        48.18821         6.08511
     2015.14579        59.42451         7.80305
     2015.14852        53.35781         6.12329
     2015.15126        48.28312         6.03421
     2015.15400        49.51342         6.05387
     2015.15630        55.74729         7.69778
     2015.21252        41.43218        11.70053
     2015.21423        45.02611         6.30376
     2015.21693        48.91956         6.30260
     2015.24238        50.75742         9.46894
     2015.24435        54.01045         6.39978
     2015.24709        53.89975         6.29566
     2015.24982        50.28706         6.05850
     2015.25256        52.52736         6.13023
     2015.25530        54.73367         6.09321
     2015.25804        51.21697         6.07238
     2015.26078        59.88927         6.12676
     2015.26266        48.18759        10.78198
     2015.27744        63.04426         6.67395
     2015.27994        52.86740         6.17882
     2015.28268        49.07471         6.15799
     2015.28542        49.80201         6.24938
     2015.28815        48.87231         6.44837
     2015.29089        55.79562         6.37433
     2015.29363        56.10992         6.35929
     2015.29637        48.35723         6.17535
     2015.29910        57.29655         6.23319
     2015.30184        59.51683         6.18691
     2015.30458        62.77914         6.28640
     2015.30732        57.16744         6.29219
     2015.31006        50.64175         6.13138
     2015.31279        37.57805         9.05710
     2015.31553        43.57635         6.02148
     2015.31827        42.98066         6.06544
     2015.32101        46.83796         6.15337
     2015.32358        54.80684         6.76535
     2015.34038        53.16035         6.48307
     2015.34258        47.34155         7.11588
     2015.34566        45.94465         6.10015
     2015.34839        48.38100         6.05735
     2015.35112        47.20630         6.12444
     2015.35386        51.28261         6.05503
     2015.35660        53.11991         6.18460
     2015.35934        51.75322         6.29913
     2015.36208        49.36952         6.55595
     2015.36481        49.03682         6.06082
     2015.36755        55.18913         6.22162
     2015.37029        54.50043         6.08395
     2015.37303        46.01574         6.07586
     2015.37577        52.40104         6.21005
     2015.37850        45.29634         6.31648
     2015.38124        51.55365         6.11287
     2015.38398        48.42195         6.08511
     2015.38672        53.30826         6.13023
     2015.38945        51.04256         6.15915
     2015.39219        48.89586         6.10825
     2015.39493        50.23717         6.22856
     2015.39767        48.24047         6.25633
     2015.40041        48.78878         7.50227
     2015.40314        46.89908         6.40325
     2015.40588        47.19238         6.22740
     2015.40862        52.14469         6.25054
     2015.41136        53.80999         6.33268
     2015.41410        48.33930         6.14527
     2015.41683        51.68460         6.19617
     2015.41957        46.89790         6.06891
     2015.42231        50.92721         6.19501
     2015.42505        42.76851         6.30260
     2015.42778        48.78882         6.10940
     2015.43052        56.68712         6.21699
     2015.43326        54.62442         6.23897
     2015.43600        61.46673         6.21468
     2015.43874        58.67303         6.07933
     2015.44147        63.39133         6.59182
     2015.44421        66.49564         6.49927
     2015.44695        48.54994         8.24382
     2015.44969        48.50125         6.14527
     2015.45210        56.14370         7.04068
     2015.45881        57.17994        11.69244
     2015.46064        64.04046         6.52703
     2015.46330        63.10305         6.57909
     2015.46617        59.82687         6.48307
     2015.46885        68.59337         6.47613
     2015.47159        55.98066         6.30491
     2015.47427        57.15120         6.84748
     2015.47708        51.10625         6.33846
     2015.47980        51.83959         6.24707
     2015.48254        55.93389         6.60339
     2015.48528        52.78520         6.11635
     2015.48802        52.26750         6.20658
     2015.49076        55.68181         6.30029
     2015.49349        50.30911         8.74590
     2015.49624        56.55340         6.75725
     2015.49897        47.96072         6.29682
     2015.50171        61.41402         6.35697
     2015.50444        63.77233         6.23550
     2015.50718        56.43763         6.35929
     2015.50992        51.50093         6.13833
     2015.51230        66.88550         7.03143
     2015.51541        51.29349         6.11635
     2015.51813        60.29685         6.39978
     2015.52063        66.46801         6.66470
     2015.53772        67.27949         7.68274
     2015.54004        59.55028         6.42176
     2015.54277        56.72358         6.33846
     2015.54551        64.20588         6.18113
     2015.54825        66.51919         6.44490
     2015.55099        71.63449         6.41597
     2015.55373        71.55080         6.21468
     2015.55646        66.28910         6.17535
     2015.55920        61.97240         6.16609
     2015.56194        61.84671         6.22972
     2015.56420        60.92871         7.43864
     2015.56827        63.20330        11.31992
     2015.57015        57.90162         6.54323
     2015.57289        53.23392         6.50274
     2015.57563        60.10423         6.28178
     2015.57837        59.35553         6.53166
     2015.58110        63.84984         6.33846
     2015.58384        63.67214         6.41482
     2015.58658        61.98044         6.62305
     2015.58932        66.82275         6.61380
     2015.59206        60.65705         6.70288
     2015.59479        67.23036         6.50968
     2015.59742        69.62105         6.66239
     2015.60103        48.36925        10.39790
     2015.60301        75.09327         6.81278
     2015.60574        63.15057         6.71097
     2015.60848        68.18588         7.02333
     2015.61122        66.36818         6.99325
     2015.61396        70.63348         7.02101
     2015.61670        73.76579         6.60570
     2015.61943        70.58409         6.68784
     2015.62217        77.90140        10.10522
     2015.62491        73.72870         6.34540
     2015.62765        64.15700         6.39052
     2015.63039        70.74831         6.56058
     2015.63312        70.37661         6.35697
     2015.63586        78.19091         6.59876
     2015.63860        57.02222         6.29797
     2015.64134        61.53452         6.24823
     2015.64407        66.77083         7.15290
     2015.64681        62.84413         6.48770
     2015.64955        62.51643         6.27137
     2015.65229        58.79874         6.37664
     2015.65503        70.04004         6.32342
     2015.65776        74.39135         6.62305
     2015.66050        53.88365         8.37917
     2015.66324        73.43095         6.31070
     2015.66598        67.72526         6.46225
     2015.66872        77.20456         6.62537
     2015.67145        59.15787         6.42176
     2015.67319        68.72571        11.87291
     2015.68082        77.10070        16.93882
     2015.68240        58.77608         6.28178
     2015.68514        60.36339         6.42176
     2015.68788        62.42669         6.54554
     2015.69062        56.16699         7.07539
     2015.69336        53.69830         6.55133
     2015.69609        57.54860         6.35929
     2015.69883        78.75491         6.73295
     2015.70157        70.25221         6.47960
     2015.70431        65.79851         6.32689
     2015.70705        59.82082         6.27715
     2015.70978        61.90312         6.23550
     2015.71252        60.62343         6.28409
     2015.71526        69.01373         6.28293
     2015.71800        72.46303         6.37317
     2015.72073        76.29734         6.50505
     2015.72347        56.72964         6.18344
     2015.72600        50.30870         6.94003
     2015.73840        89.72678        25.32956
     2015.73992        63.76938         6.33846
     2015.74264        60.06477         6.29450
     2015.74538        59.98107         6.58256
     2015.74811        56.94438         6.60339
     2015.75085        51.21668         6.28409
     2015.75359        57.57798         6.24823
     2015.75633        60.05829         6.20889
     2015.75906        59.33359         6.22856
     2015.76180        51.43990         6.24707
     2015.76454        62.96220         6.22972
     2015.76728        56.99150         6.26442
     2015.77002        68.10281         6.37317
     2015.77275        68.88011         6.19386
     2015.77549        79.78442         6.35350
     2015.77823        65.10272         6.64850
     2015.78097        63.19302         6.17188
     2015.78371        63.16433         6.15684
     2015.78644        60.27063         6.25864
     2015.78918        54.36894         8.50411
     2015.79192        60.41524         6.25980
     2015.79466        65.34754         6.31070
     2015.79695        55.75343         7.64919
     2015.80075        57.55496         8.56659
     2015.80287        55.85746         6.24013
     2015.80561        55.35576         6.32458
     2015.80835        56.72606         6.21931
     2015.81108        54.47037         6.21699
     2015.81382        54.15567         6.22162
     2015.81656        57.07998         6.45415
     2015.81930        61.45528         6.35350
     2015.82203        57.58258         6.40440
     2015.82477        67.73389         6.42060
     2015.82751        62.40119         6.39052
     2015.83025        66.24649         6.37780
     2015.83299        58.85280         6.37317
     2015.83572        58.02810         6.27252
     2015.83846        56.33441         6.35582
     2015.84120        50.59071         6.26211
     2015.84394        59.05601         6.26558
     2015.84668        47.49232         6.25864
     2015.84941        61.56662         6.30144
     2015.85216        56.43491         6.31070
     2015.85489        59.98623         6.51199
     2015.85763        54.26853         6.37317
     2015.86036        54.39284         6.57446
     2015.86310        56.53014         6.47035
     2015.86584        55.69345         6.50042
     2015.86858        51.61175         6.48654
     2015.87132        56.19605         6.39052
     2015.87405        55.96736         6.55364
     2015.87679        51.69366         6.38474
     2015.87953        57.43697         6.61148
     2015.88227        57.61027         6.53860
     2015.88501        51.67957         6.96780
     2015.88774        48.55088         6.31764
     2015.89048        59.32318         6.36739
     2015.89322        57.97849         6.44490
     2015.89592        52.60491         6.64041
     2015.89987        49.40194        17.95917
     2015.90143        48.51540         6.28409
     2015.90417        48.36370         6.32805
     2015.90691        51.25001         6.38242
     2015.90965        56.00331         6.73064
     2015.91238        51.59261         6.31301
     2015.91512        51.75892         6.40903
     2015.91786        49.99322         6.33384
     2015.92060        45.44453         6.38242
     2015.92977        18.83105        11.32340
     2015.93155        54.53974         6.76072
     2015.93429        58.58404         6.54670
     2015.93702        66.97135         6.67858
     2015.93976        58.16365         6.63462
     2015.94250        45.83996         6.59297
     2015.94524        53.79626         6.57215
     2015.94798        48.20056         6.54901
     2015.95071        62.58687         6.41829
     2015.95345        56.46117         6.41366
     2015.95619        55.90248         6.39631
     2015.95893        54.87578         6.55364
     2015.96167        46.55108         6.42986
     2015.96440        38.81839         6.30491
     2015.96714        61.13869         6.45762
     2015.96988        59.40500         6.44027
     2015.97262        61.37130         6.39746
     2015.97535        58.70560         6.30260
     2015.97809        48.39891         6.33152
     2015.98083        47.52821         6.33731
     2015.98357        46.68052         6.42060
     2015.98631        44.74282         6.60686
     2015.98904        34.54712         6.28756
     2015.99178        31.72643         6.36970
     2015.99452        31.84173         6.33152
     2015.99726        33.27504         6.42060
     2016.00000        32.60634         6.40440
     2016.00273        38.89964         6.45184
     2016.00547        45.80795         6.43217
     2016.00821        50.93625         6.39399
     2016.01033        55.71174         8.98653
     2016.01459        39.39966        10.76000
     2016.01642        45.60016         6.51662
     2016.01916        49.97647         6.70750
     2016.02190        49.51877         6.47150
     2016.02464        51.22007         6.28872
     2016.02744        46.74816         6.49001
     2016.03011        50.62768         6.40093
     2016.03285        42.35199         6.37664
     2016.03559        24.74429         6.38358
     2016.03833        49.49559         6.51431
     2016.04106        49.16990         6.29913
     2016.04380        42.46020         6.47150
     2016.04654        40.06751         6.28872
     2016.04928        38.68281         6.41829
     2016.05201        41.84711         6.35466
     2016.05475        41.26342         6.27831
     2016.05749        34.34272         7.05341
     2016.06023        49.89503         6.23203
     2016.06297        38.08533         6.34540
     2016.06570        49.26063         6.32342
     2016.06844        50.68394         6.29450
     2016.07118        47.97624         6.38705
     2016.07392        46.27455         6.34656
     2016.07666        58.61985         6.39862
     2016.07939        52.47315         6.27484
     2016.08213        56.28146         6.45878
     2016.08487        50.56976         6.21237
     2016.08761        47.61807         6.21815
     2016.09034        46.53037         6.63809
     2016.09308        40.20767         6.47497
     2016.09582        47.67098         6.21121
     2016.09856        45.03028         6.36276
     2016.10130        40.45759         6.21468
     2016.10403        41.26389         6.27484
     2016.10677        43.53619         6.57909
     2016.10951        45.53350         6.23088
     2016.11225        42.94480         6.63578
     2016.11498        45.95411         6.25517
     2016.11772        47.02241         6.24938
     2016.12046        42.03971         6.45184
     2016.12320        45.71402         6.17766
     2016.12594        45.56632         6.25980
     2016.12867        52.76362         6.18460
     2016.13141        58.85093         6.16262
     2016.13415        54.79523         6.15568
     2016.13689        51.15954         6.36739
     2016.13957        47.73104         6.27715
     2016.14239        43.53204         6.36970
     2016.14510        40.56545         6.22393
     2016.14784        43.42575         6.25748
     2016.15058        46.51906         6.15799
     2016.15331        46.56736         6.37201
     2016.15605        51.65566         6.14874
     2016.15879        44.66797         6.23550
     2016.16153        49.97527         6.32111
     2016.16427        40.32058         6.09899
     2016.16700        43.88788         6.14295
     2016.16974        46.46018         6.15105
     2016.17248        47.11849         6.25170
     2016.17522        49.87479         6.26905
     2016.17796        54.39910         6.32689
     2016.18069        54.24940         6.33384
     2016.18343        45.18470         6.46572
     2016.18617        50.94701         6.21584
     2016.18891        55.32931         6.28640
     2016.19164        54.07762         6.18807
     2016.19438        52.32892         6.01570
     2016.19712        51.31722         6.08164
     2016.19986        49.48753         6.39978
     2016.20260        42.30783         6.35813
     2016.20488        53.78175         7.95113
     2016.20807        47.32844         6.35466
     2016.21081        37.91874         6.23435
     2016.21341        45.89352         6.60917
     2016.21642        48.64586         6.70056
     2016.21902        50.37765         6.05966
     2016.22176        50.41196         6.06891
     2016.22450        47.52626         6.18113
     2016.22724        46.52557         6.13833
     2016.22997        51.00187         6.06197
     2016.23271        47.31317         6.03652
     2016.23545        45.43048         6.12676
     2016.23819        48.39278         6.11635
     2016.24093        46.91109         6.16262
     2016.24366        45.84439         6.09784
     2016.24640        47.51469         6.17766
     2016.24914        47.10200         6.11172
     2016.25188        49.41430         6.37548
     2016.25462        50.42061         6.38705
     2016.25735        51.33991         6.14295
     2016.26009        45.52121         6.34656
     2016.26283        42.08352         6.15799
     2016.26557        44.70182         6.19848
     2016.26830        42.21913         6.11866
     2016.27104        55.79243         6.24938
     2016.27378        53.57173         6.15568
     2016.27652        51.46904         6.14758
     2016.27926        49.83834         6.16146
     2016.28199        52.90065         6.47266
     2016.28473        46.93595         6.20195
     2016.28747        45.80525         6.50390
     2016.29021        41.54656         6.14758
     2016.29210        45.33584        10.41988
     2016.29645        42.89344         9.25492
     2016.29842        48.27247         6.31301
     2016.30116        47.57277         6.29682
     2016.30390        44.34708         6.41829
     2016.30663        51.28338         6.22856
     2016.30937        48.30369         6.17303
     2016.31211        53.21699         6.31995
     2016.31485        46.76929         6.16725
     2016.31759        47.70360         6.20774
     2016.32032        47.35390         6.17072
     2016.32306        43.95720         6.17188
     2016.32580        43.42351         6.14874
     2016.32854        46.75781         6.19733
     2016.33128        44.19212         6.18344
     2016.33401        49.06242         6.26095
     2016.33675        43.47772         6.28062
     2016.33949        50.09103         8.39884
     2016.34223        49.67533         6.29566
     2016.34496        48.08264         6.34425
     2016.34770        45.19194         6.29219
     2016.35044        64.11624         6.70403
     2016.35318        54.46455         6.30029
     2016.35592        47.58585         6.31648
     2016.35865        43.86216         6.13023
     2016.36139        45.53346         6.19154
     2016.36413        51.75376         6.35697
     2016.36687        52.44907         6.19154
     2016.36961        64.02637         6.29219
     2016.37234        59.88568         6.27137
     2016.37508        58.46498         6.28178
     2016.37782        49.78128         6.27252
     2016.38056        58.01759         6.48654
     2016.38329        50.97389         6.13717
     2016.38603        50.82620         6.18691
     2016.38877        64.02250         6.13370
     2016.39151        56.23680         6.53860
     2016.39425        49.18911         6.25170
     2016.39698        61.50741         6.34078
     2016.39972        65.30872         6.36623
     2016.40246        44.48302         6.23435
     2016.40520        44.85932         6.13948
     2016.40794        51.51963         6.21584
     2016.41067        38.12693         6.29335
     2016.41341        43.81223         6.17188
     2016.41615        49.56054         6.23782
     2016.41889        55.60984         6.56058
     2016.42162        53.97015         6.32689
     2016.42436        45.28745         6.20889
     2016.42710        46.14875         6.22393
     2016.42984        53.28006         6.24244
     2016.43258        52.73436         6.28988
     2016.43531        58.75667         6.37086
     2016.43805        51.68397         6.28756
     2016.44079        54.75627         6.72601
     2016.44355        51.26851         6.29219
     2016.44626        50.89488         6.17997
     2016.44900        49.30419         6.22509
     2016.45174        55.04149         6.33731
     2016.45448        55.25879         6.15568
     2016.45722        51.44810         6.20195
     2016.45995        53.41140         6.21005
     2016.46269        47.01571         6.13370
     2016.46543        45.08601         6.12907
     2016.46817        47.15531         6.18691
     2016.47091        52.58962         6.22856
     2016.47364        52.67292         6.19154
     2016.47638        66.19623         6.50621
     2016.47912        59.91553         6.45878
     2016.48162        54.06168         6.70866
