# ================= DQRFIT RESULTS ================
# INPUT FILE: series/GWEN.rad
# OUTPUT: LDETRENDED
# FILTER FUNCTION: f(t)
# f(t)=+line(t)+annual(t)+jumps(t)
# line(t)=+P 1+P 2*t
# annual(t)=+P 3*sin(2*pi*t+P 4)
# jumps(t)=+P 5*heav(t-1999.6111  )
# heav(t)=(t<0?0:1)
# TOTAL OBSERVATIONS MTOT= 3789
# INITIAL TIME INTERVAL= 2007.8461 - 1997.3717 = 10.4745
# TOTAL OBSERVATIONS AFTER PREFILTER M= 3758
# TIME-SPAN= 2007.8461 - 1997.3717 = 10.4745
# OBSERVATIONS: USED M=  3758 REJECTED MTOT-M=    31 %USED=   99.1818
# N=  5 PARAMETERS
# MAXSIG= 175.00000
# MAXRES=  58.32735
# SCALE FACTOR FOR LENGTHS: SCL=  10.00000
# SCALE FACTOR FOR SIGMAS: SCLSIG=   1.00000
# CHI^2=   5641.206 DOF=  3753 CHI^2/DOF=   1.50312
# RMS=      7.826 SDEV=      7.827 MEAN=    0.01592
#  P #       PARAMETER +-    SIGMA %error PARAMETER NAME
# P 1 =      5983.05607 +-  118.773   1.99 YZERO                              
# P 2 =        -2.97550 +-    0.059   2.00 SLOPE                              
# P 3 =         6.84947 +-    0.175   2.56 ANNUAL AMPLITUDE                   
# P 4 =        -2.60370 +-    0.031   1.19 ANNUAL PHASE                       
# P 5 =         9.64795 +-    0.447   4.63 OFFSET 1999.6111                   
#       T            LDETRENDED       SIG_OBS
     1997.37166         7.00546         8.25600
     1997.37440        -3.15839         7.93111
     1997.37714        -8.76225         8.63852
     1997.37988        -1.88310         8.88740
     1997.38261        -2.68796         9.08602
     1997.38535        -6.90281         7.81954
     1997.38809       -24.45566        24.82931
     1997.39083         0.45548         7.94705
     1997.39357        -2.73737         7.83303
     1997.39629         1.62275         7.69081
     1997.39904       -11.21108         7.82199
     1997.40178        -5.61093         8.10888
     1997.40452        -3.34978         7.90168
     1997.40726        -0.03764         7.68468
     1997.40999         3.92551         7.68836
     1997.41273         5.20766         7.89433
     1997.41547         8.31280         7.68590
     1997.41821         1.81595         7.85509
     1997.42094        -4.59690         7.67487
     1997.42368        -7.00376         7.86858
     1997.42642        -7.21061         7.64422
     1997.42916        -3.48947         7.63073
     1997.43190        -4.13932         7.56821
     1997.43463         3.54883         7.64054
     1997.43737        -0.11103         7.93724
     1997.44011         4.36812         8.16405
     1997.44285         0.69427         7.96298
     1997.44559        -5.23659         7.72146
     1997.44832        -1.26644         7.66016
     1997.45106        -4.60029         7.93846
     1997.45380         1.35485         7.64299
     1997.45654        -6.41400         7.65771
     1997.45927         5.26215         7.88820
     1997.46201         5.15129         7.79992
     1997.46475        -5.40956         7.79134
     1997.46749        -5.78541         7.81218
     1997.47023         8.09473         7.96421
     1997.47296         2.29688         7.80238
     1997.47570         0.34902         7.63809
     1997.47844        -9.54883         7.74230
     1997.48118        -4.87868         7.93724
     1997.48392         5.31246         7.75088
     1997.48665         2.78161         7.83793
     1997.48939         4.01876         7.75088
     1997.49213         2.56690         7.51794
     1997.49486         6.01204         7.49832
     1997.49760        -0.55280         7.74966
     1997.50034         0.56434         7.81218
     1997.50308        -0.24451         7.57924
     1997.50582         5.85264         7.62338
     1997.50856         3.05678         8.25723
     1997.51129        -5.43707         7.83303
     1997.51403         8.08908         7.80238
     1997.51677        10.21022         7.77908
     1997.51951        -7.20163         7.78521
     1997.52225        -7.69949         7.79747
     1997.52498         1.31866         7.95195
     1997.52772         2.90181         7.93846
     1997.53046        13.80795         7.70429
     1997.53320         6.68610         8.40680
     1997.53593         3.81525         7.96666
     1997.53867        25.13039         8.01938
     1997.54141        -5.01346         7.63809
     1997.54415        16.25169         7.54859
     1997.54689        -5.02017         7.90904
     1997.54962        -0.67702         7.76682
     1997.55236        10.19013         7.83425
     1997.55510        19.10327         7.80483
     1997.55784         2.41042         8.14076
     1997.56057        13.71257         7.87471
     1997.56331         0.50771         7.99609
     1997.56605         5.95386         7.80728
     1997.56879        -5.48100         7.84774
     1997.57153         3.10115         7.73249
     1997.57426         1.70030         8.00222
     1997.57700         0.53444         7.84283
     1997.57974         9.74659         8.22290
     1997.58248        11.90174         8.11501
     1997.58522        -5.43612         7.78031
     1997.58795        -1.20797         7.58169
     1997.59069        16.08718         7.82567
     1997.59343         4.07732         7.63073
     1997.59617        21.51247         7.65893
     1997.59890        -6.01538         7.83548
     1997.60164         6.39876         7.77786
     1997.60438         2.84391         7.65771
     1997.60712         3.77006         7.46890
     1997.60986        19.79520         7.57556
     1997.61259        -1.76765         7.90536
     1997.61533         4.04549         7.72268
     1997.61807        13.19464         7.78521
     1997.62081        22.74079         7.90291
     1997.62355         3.86393         7.58169
     1997.62628        -2.14092         7.65158
     1997.62902        -1.50177         7.65035
     1997.63176        -2.22763         7.47012
     1997.63450         7.23652         7.72023
     1997.63723         5.96967         7.45541
     1997.63997         1.41281         7.63686
     1997.64271        26.51196         7.63196
     1997.64545         2.93211         7.57311
     1997.64819        -1.17975         7.64545
     1997.65092        -1.74260         7.59518
     1997.65366         3.30555         7.83057
     1997.65640        12.67069         7.47380
     1997.65914         2.72984         7.41741
     1997.66188         1.07698         7.35243
     1997.66461        13.78113         7.38430
     1997.66735        11.98028         7.47135
     1997.67009         1.05842         7.54859
     1997.67283        -4.99943         7.52407
     1997.67556         1.82572         7.33404
     1997.67830         7.02886         7.46645
     1997.68104        -3.50599         7.50078
     1997.68378         5.58516         7.40147
     1997.68652         3.66530         7.32791
     1997.68925        11.51945         7.65893
     1997.69199        13.43660         7.55962
     1997.69473         7.85574         8.03532
     1997.69747        11.43489         7.94214
     1997.70021         3.34004         7.66261
     1997.70294         3.55418         7.45664
     1997.70568         6.24933         7.33036
     1997.70842         7.50247         7.43825
     1997.71116         2.13362         7.48361
     1997.71389         7.15577         7.71533
     1997.71663         6.31991         7.44806
     1997.71937         8.57306         7.46032
     1997.72211        -6.43879         7.22860
     1997.72485         0.21135         7.41005
     1997.72758         7.24950         7.67119
     1997.73032         4.61665         7.56575
     1997.73306        12.38779         7.78031
     1997.73580         8.46494         7.72636
     1997.73854        25.82609         8.22413
     1997.74127        16.62423         7.67610
     1997.74401        17.36638         7.83670
     1997.74675        -0.16847         7.56208
     1997.74949         9.74967         7.57556
     1997.75222         3.92782         7.56575
     1997.75496         5.85596         7.76437
     1997.75770         2.35511         8.03409
     1997.76044        12.59226         7.82567
     1997.76318         8.79942         7.56821
     1997.76592        -2.27242         7.61234
     1997.76866         2.06571         7.60253
     1997.77139         7.73886         7.68836
     1997.77413        -8.78501         8.12604
     1997.77687        -1.56485         7.97770
     1997.77961         3.78330         7.55349
     1997.78231       -10.20166         7.88697
     1997.78508        -5.83841         7.72391
     1997.78782        -6.58526         7.64054
     1997.79056        -9.90712         7.68223
     1997.79330         6.23603         7.48239
     1997.79603        -1.20582         7.59640
     1997.79877        -4.15368         7.68468
     1997.80151        -2.23453         7.80851
     1997.80425         4.10262         7.88207
     1997.80699        -5.43324         7.58047
     1997.80972        -6.20009         7.83057
     1997.81246         5.89105         7.85755
     1997.81520         0.26720         7.78031
     1997.81794         3.10935         7.68836
     1997.82068        -1.75151         7.57924
     1997.82341         3.75764         7.60499
     1997.82615        -0.96421         8.03041
     1997.82892         0.81103         7.87103
     1997.83163         1.14508         7.91762
     1997.83436        -9.48977         8.04268
     1997.83710         1.52236         7.78031
     1997.83986         1.19858         8.05739
     1997.84258       -12.90333         7.68713
     1997.84532        -6.29619         7.95808
     1997.84805        -6.70404         8.10520
     1997.85079        -2.89889         7.74230
     1997.85353         3.34825         7.91272
     1997.85627         0.47640         7.62583
     1997.85901         7.18554         7.59150
     1997.86174        10.89669         7.81464
     1997.86448         5.76484         7.61970
     1997.86722         7.34398         7.94092
     1997.86995         6.72610         7.86245
     1997.87270        -2.97771         7.67610
     1997.87543        14.07642         7.57434
     1997.87817         6.92857         7.97034
     1997.88091        -6.13128         7.88820
     1997.88365         0.42586         7.81464
     1997.88638         6.49201         7.92375
     1997.88912        -8.69684         8.44603
     1997.89186        -0.69970         8.13830
     1997.89460         1.85645         8.20941
     1997.89734         9.53560         8.13585
     1997.90007         5.82974         8.09785
     1997.90281        -3.44911         8.28420
     1997.90555         3.83003         7.76069
     1997.90829        -2.50982         8.32466
     1997.91102        -8.85667         8.11378
     1997.91376         1.75947         7.89187
     1997.91650       -10.15238         7.47993
     1997.91924        -7.10523         7.63073
     1997.92198        -6.22309         8.07210
     1997.92471        -4.59294         7.48729
     1997.92745        -5.95879         7.99363
     1997.93019        -4.72665         7.91517
     1997.93293         2.55350         7.49342
     1997.93567        -3.15635         7.99731
     1997.93840        -4.77321         7.88329
     1997.94114        -4.21506         7.51671
     1997.94388       -16.95191         7.33036
     1997.94662       -12.86377         7.41250
     1997.94935       -10.30464         7.60744
     1997.95209       -13.29748         7.60253
     1997.95483        -6.07833         7.75579
     1997.95757        -7.94818         7.65035
     1997.96031        -4.61004         7.31074
     1997.96296       -13.20514         7.97034
     1997.96578        -4.38274         7.39779
     1997.96852        -3.31860         7.50936
     1997.97126        -5.01145         7.84774
     1997.97400        -5.73630         7.40147
     1997.97673       -15.67917         8.53553
     1997.97947        -3.88501         7.70429
     1997.98221        -6.92386         7.51671
     1997.98495       -10.06672         7.33526
     1997.98768        -1.28557         7.38185
     1997.99042        -6.39842         7.33036
     1997.99316        -5.50428         7.62460
     1997.99590        -2.96113         7.26906
     1997.99863         2.31400         7.36101
     1998.00411        -0.87169         7.70062
     1998.00685        -0.80455         7.67242
     1998.00959        -1.26840         7.29848
     1998.01233       -16.12625         7.30093
     1998.01506        -0.27611         7.32423
     1998.01780        -4.21796         7.70184
     1998.02054       -17.52881         7.86122
     1998.02321        -3.73385         7.67487
     1998.02601        -8.83352         7.34017
     1998.02875       -10.08937         8.13830
     1998.03149        -6.39223         7.85264
     1998.03423        -6.75008         7.72146
     1998.03697        -1.66493         7.82690
     1998.03970         1.53721         7.79012
     1998.04244        -4.22564         7.80728
     1998.04518        -0.21250         8.11869
     1998.04792        -4.05935         8.15424
     1998.05065        -2.66820         7.41128
     1998.05887        16.72124         7.83425
     1998.06161        11.40938         7.96053
     1998.06434        -2.75647         7.50813
     1998.06708         0.83768         7.56821
     1998.06982        -6.02018         7.57924
     1998.07256        -2.49803         7.53510
     1998.07530       -11.99388         7.56085
     1998.07803        -4.91874         7.55472
     1998.08077        -3.65259         7.35856
     1998.08351         2.42356         7.21511
     1998.08625        -3.99530         7.81586
     1998.08898         3.25585         7.22983
     1998.09172        -9.47601         7.61602
     1998.09446         1.48514         7.48116
     1998.09720        -3.97271         8.28175
     1998.09994        -1.29957         7.33526
     1998.10267        -6.00642         7.50936
     1998.10539         1.39366         7.75701
     1998.10815        -4.72813         7.50200
     1998.11089        -4.99698         7.49219
     1998.11363         1.25217         7.42967
     1998.11636         2.86431         7.60744
     1998.11910        -2.45054         7.39534
     1998.12179        -9.63054         7.81586
     1998.12458         0.55675         7.21389
     1998.12731        -5.56110         7.32545
     1998.13005        -4.12095         7.60131
     1998.13279        -0.70181         7.90414
     1998.13553        -5.86566         7.55595
     1998.13827        -7.20852         7.26906
     1998.14100        13.21363         7.65771
     1998.14374        -9.28222         7.63441
     1998.14648         0.27892         7.28745
     1998.14922       -11.22693         7.51181
     1998.15196        -6.25378         7.54614
     1998.15469       -10.10964         7.79870
     1998.15743       -21.22149         7.97279
     1998.16017        -3.39934         7.62706
     1998.16291        -8.30620         7.43947
     1998.16564        -5.07205         7.27641
     1998.16838         2.28010         7.63686
     1998.17109        -2.71684         7.17833
     1998.17386        -3.64761         7.24822
     1998.17608       -10.72199         9.27237
     1998.17933        -3.83432         7.41986
     1998.18207        -9.67917         7.39534
     1998.18480        -8.76107         7.30339
     1998.18827        -8.86674        12.13512
     1998.19029        -1.10773         7.51181
     1998.19302        -7.00859         7.63809
     1998.19576        -6.34844         7.19427
     1998.19850        -9.75429         7.62828
     1998.20124        -4.68415         7.44806
     1998.20397        -3.74000         7.49955
     1998.20671        -4.06585         7.51794
     1998.20945        -2.89071         7.19795
     1998.21219        -8.66356         7.29603
     1998.21487        -3.31457         8.15915
     1998.21766         2.93173         7.17956
     1998.22040        -5.93014         7.30829
     1998.22313        -0.63700         7.70552
     1998.22587        -3.18886         7.48116
     1998.22861        -0.62671         7.46154
     1998.23021        -0.43993        19.87129
     1998.23409         6.11761         7.96298
     1998.23683         1.47976         7.68468
     1998.23957        -3.32610         7.73372
     1998.24230       -10.18695         7.74720
     1998.24504        -3.19580         7.47993
     1998.24778        -3.68666         7.48361
     1998.25052         2.26949         7.52162
     1998.25326        -5.29436         7.35243
     1998.25599         0.06778         7.52039
     1998.25873         0.35493         7.41741
     1998.26147         2.70708         7.98505
     1998.26421        -7.91578         7.65893
     1998.26695         1.04037         7.50568
     1998.26968        -5.57049         7.42844
     1998.27242         0.81566         7.74720
     1998.27516         3.32781         7.49097
     1998.27790        -3.88005         7.43089
     1998.28063        14.77110         7.30706
     1998.28337        -0.38175         7.37082
     1998.28611        -1.47561         7.49587
     1998.28885        -6.21645         7.59518
     1998.29159        -7.06631         7.61234
     1998.29432        -4.12617         7.54736
     1998.29705        -9.23606         7.39656
     1998.29980        -0.68787         7.45419
     1998.30254         2.86527         7.50323
     1998.30528         1.70742         7.21879
     1998.30801         8.14857         7.41250
     1998.31075        -0.28429         7.29603
     1998.31349        -0.86714         7.44315
     1998.31623        -5.09700         7.72146
     1998.31896        -6.46885         7.17588
     1998.32170        -7.42470         7.37082
     1998.32444        -2.44956         7.36224
     1998.32717         1.28056         7.37695
     1998.32992         0.55774         7.18446
     1998.33265        13.70088         7.41741
     1998.33539         2.35903         7.44070
     1998.33813         1.13718         7.76927
     1998.34087         3.84332         7.55962
     1998.34361         7.26147         7.40269
     1998.34634        -2.88438         7.42844
     1998.34905         2.01768         7.69939
     1998.35182        -0.48009         7.30461
     1998.35456         1.87906         7.49465
     1998.35729         7.72320         7.44315
     1998.36003        10.03035         7.34017
     1998.36277         6.18349         7.14400
     1998.36551         5.29464         7.38308
     1998.36825        -2.92821         7.27028
     1998.37098        10.49093         7.39289
     1998.37372         5.21408         7.27274
     1998.37646         0.69023         7.46645
     1998.37920         3.74037         7.40024
     1998.38193         0.64352         7.48974
     1998.38467         4.41467         7.53510
     1998.38741         0.38281         7.52039
     1998.39015        -3.52604         7.50813
     1998.39289        -4.60689         7.66874
     1998.39562        -4.43775         7.32545
     1998.39836         0.64940         7.38553
     1998.40110        -3.87547         7.70062
     1998.40383         2.80966         7.37204
     1998.40657         4.52281         7.46890
     1998.40930         0.22696         7.39902
     1998.41204         0.17810         7.29358
     1998.41478         1.85825         7.35856
     1998.41752         8.12840         7.35856
     1998.42026         8.07257         7.51917
     1998.42300         4.79572         7.50936
     1998.42574         4.54686         7.54001
     1998.42848         6.80201         7.53265
     1998.43122         1.90816         7.44806
     1998.43395         4.33430         7.46399
     1998.43669         2.83545         7.34998
     1998.43943         5.82160         7.63319
     1998.44217        -0.92326         7.18937
     1998.44491        12.88089         7.31565
     1998.44764         7.80204         7.44928
     1998.45038        -0.34882         7.50936
     1998.45312        -5.02267         7.99609
     1998.45586         0.37147         7.74107
     1998.45859         1.27262         7.90414
     1998.46133         3.67777         7.37572
     1998.46407        -0.10809         7.34017
     1998.46681         0.95006         7.19182
     1998.46955         2.32021         7.56330
     1998.47228         3.68035         7.97157
     1998.47502         2.48750         7.67732
     1998.47776         7.65465         7.70307
     1998.48047        11.82771         7.66874
     1998.48324         0.15394         7.68100
     1998.48597         3.89209         7.84161
     1998.48870         0.65720         7.57556
     1998.49145        -3.70162         7.55962
     1998.49420         1.57955         7.70552
     1998.49692        -0.56433         7.93846
     1998.49966         4.88582         7.56575
     1998.50240         6.83396         7.27396
     1998.50514         5.23711         7.43825
     1998.50788         3.57426         7.32055
     1998.51061         3.48040         7.69081
     1998.51335         5.69955         7.56821
     1998.51609         8.63270         7.47135
     1998.51883        12.55084         7.61725
     1998.52157         7.94199         8.10275
     1998.52430        -5.63386         7.81096
     1998.52702        -5.86977         7.54369
     1998.52977        -3.08358         7.68590
     1998.53251         2.45855         7.65158
     1998.53525         5.51972         7.56698
     1998.53799         3.65587         7.30461
     1998.54074         6.94503         7.31932
     1998.54347        10.96216         7.98383
     1998.54621         5.62331         7.91517
     1998.54894         4.68445         7.30706
     1998.55168         6.60360         7.43580
     1998.55442         8.29375         7.95931
     1998.55716         0.95889         7.87471
     1998.55990         6.02004         7.49465
     1998.56263         4.61119         7.37572
     1998.56536         0.58729         7.57556
     1998.56811        13.01548         7.91149
     1998.57085         6.89863         7.60008
     1998.57358        10.50377         7.38063
     1998.57632        14.13592         7.70797
     1998.57906         5.43207         7.58414
     1998.58180         9.74321         7.55472
     1998.58454        11.51736         7.43334
     1998.58727         4.30451         7.59395
     1998.59001         4.72465         7.77418
     1998.59275         2.55980         7.42108
     1998.59549        15.70094         7.73127
     1998.59823         3.75009         7.37572
     1998.60096        13.11824         7.30339
     1998.60370         9.66038         7.84651
     1998.60644         9.74853         7.70920
     1998.60918         8.78468         7.36837
     1998.61191         5.70882         7.27274
     1998.61465        -5.44703         7.26783
     1998.61739        17.83612         7.98996
     1998.62013        24.38926         7.59640
     1998.62287        11.32341         7.62951
     1998.62560        -2.23844         7.56330
     1998.62834         3.55870         7.41741
     1998.63108         6.94485         7.27519
     1998.63382         5.15400         7.54736
     1998.63656         1.66514         7.27764
     1998.63929         2.42129         7.69203
     1998.64203         0.87343         7.36714
     1998.64477         3.95158         7.72146
     1998.64751        -0.59327         7.61725
     1998.65024         4.70287         7.49465
     1998.65298         7.32002         7.69694
     1998.65572         4.30317         7.76927
     1998.65846        -1.71269         7.46277
     1998.66120         8.57346         7.28745
     1998.66393         5.81461         7.51304
     1998.66667        12.59575         7.57311
     1998.66941         8.87390         7.80973
     1998.67215         3.33605         7.71901
     1998.67488         8.10719         7.78031
     1998.67763         5.04335         7.35120
     1998.68036         2.33849         7.46032
     1998.68310        14.35363         7.50200
     1998.68592        17.48602         8.03287
     1998.68857        14.50892         7.89310
     1998.69131         9.99507         7.40760
     1998.69405         5.31822         7.62583
     1998.69679        13.12136         7.60744
     1998.69953        15.31451         7.54246
     1998.70226        10.59266         7.87839
     1998.70500        10.93380         7.39411
     1998.70774        23.82495         7.61602
     1998.71048        12.59510         7.55595
     1998.71321        16.92624         7.68836
     1998.71595         4.14839         7.28500
     1998.71869        16.21154         7.61234
     1998.72143         8.13168         7.45786
     1998.72417         8.95883         7.71288
     1998.72690         4.02898         7.89065
     1998.72964        10.82812         7.75579
     1998.73238        13.46127         8.62136
     1998.73512        10.96641         7.53143
     1998.73786        14.30956         7.32300
     1998.74059         8.26271         7.42844
     1998.74333        12.92785         7.61847
     1998.74607         8.25700         7.66751
     1998.74881        12.13515         7.29726
     1998.75154        -0.84071         7.53143
     1998.75428         8.36944         7.33036
     1998.75702        -2.29141         7.42231
     1998.75976         6.91373         7.84038
     1998.76250         7.01388         7.32913
     1998.76518        23.01286         7.99118
     1998.76797        17.75417         7.67119
     1998.77071         4.73632         7.76927
     1998.77345        -2.07553         7.43089
     1998.77619        11.22461         7.34875
     1998.77892         9.21076         7.71655
     1998.78166         3.98790         7.81831
     1998.78440        13.11805         7.63686
     1998.78714        -2.48580         7.59395
     1998.78987         1.81034         7.42354
     1998.79261        -0.63851         7.41863
     1998.79535        -0.66238         7.73372
     1998.79808         0.41575         7.62706
     1998.80082        -6.37910         7.38921
     1998.80356         1.93908         7.62828
     1998.80630         5.90122         7.60744
     1998.80904         1.76437         7.73372
     1998.81178         4.71952         7.90659
     1998.81451         7.15865         7.49465
     1998.81724        12.49878         7.80973
     1998.81997         8.73388         7.81341
     1998.82273         6.17710         7.72391
     1998.82547        10.02725         7.39289
     1998.82820         2.87139         7.64054
     1998.83094         2.15654         7.48484
     1998.83368         1.37669         7.42721
     1998.83642         0.22183         7.54491
     1998.83916         1.07398         7.59763
     1998.84189        13.78913         7.38308
     1998.84463         7.28627         7.30952
     1998.84737         7.50242         7.30706
     1998.85011        10.99257         7.50200
     1998.85285         5.98471         7.74843
     1998.85558         7.04486         7.52162
     1998.85832         7.84401         7.77418
     1998.86106        10.20915         7.41495
     1998.86380         9.56230         7.42354
     1998.86653        20.73744         7.99854
     1998.86927        10.21959         7.72881
     1998.87200        11.12470         7.61602
     1998.87474        19.46087         7.37817
     1998.87749         8.42303         7.74966
     1998.88022         2.99318         7.31074
     1998.88296         0.91632         7.35488
     1998.88570        11.49747         7.54369
     1998.88844        23.87962         7.55472
     1998.89118        27.18976         7.82077
     1998.89391         1.73991         7.75579
     1998.89665         2.78706         7.67119
     1998.89939        14.22520         7.40882
     1998.90212        12.03933         7.35243
     1998.90487        17.26252         7.37082
     1998.90760        15.20864         7.55595
     1998.91034        19.91179         7.35978
     1998.91308        21.34093         7.57556
     1998.91582        15.31008         7.64054
     1998.91855        23.79723         7.71288
     1998.92129        26.25037         7.45909
     1998.92403        29.20352         7.36714
     1998.92677        12.82267         8.01202
     1998.92951        18.47181         7.25680
     1998.93224        28.48796         7.32545
     1998.93498       -10.38689         7.58660
     1998.93772        -4.86075         7.37450
     1998.94046         8.07740         7.62338
     1998.94319        13.04055         7.66261
     1998.94593         6.48769         7.45786
     1998.94867         5.09384         7.26906
     1998.95141         4.44399         8.06107
     1998.95412        -2.74395         7.77173
     1998.95688         1.46928         7.60131
     1998.95962         6.23342         7.61357
     1998.96236         0.49357         7.75088
     1998.96510        -3.29128         7.37695
     1998.96784         1.43886         7.77418
     1998.97040         0.88350         7.89310
     1998.97348         4.28967        11.09914
     1998.97605        -0.97070         7.30584
     1998.97881        13.95154         7.74720
     1998.98152         6.12460         8.19102
     1998.98426         7.84974         7.93601
     1998.98700         4.33289         7.65035
     1998.98974        22.31104         7.57556
     1998.99248       -10.22682         8.00957
     1998.99521        11.57233         8.55760
     1998.99795        11.67546         7.71165
     1999.00340        -7.34030         9.04311
     1999.00616        -5.87409         8.65201
     1999.00890       -11.14194         8.20696
     1999.01164         0.34421         8.11869
     1999.01438        -4.48965         7.95318
     1999.01712        -3.11850         8.15179
     1999.01985         1.27563         8.14443
     1999.02258       -13.10523         8.35041
     1999.02532       -11.80309         8.30259
     1999.02806         3.82207         8.72434
     1999.03081         0.65823         8.16773
     1999.03354        -4.24062         7.99854
     1999.03628        -5.72747         8.54534
     1999.03902        -7.39133         8.06597
     1999.04176        17.16682         7.91027
     1999.04449        15.67497         7.79992
     1999.04723        13.55811         7.77540
     1999.04997        -4.78674         7.64177
     1999.05271         0.24040         7.89801
     1999.05545        -0.98045         7.79625
     1999.05818        -4.27330         7.68836
     1999.06092        -7.29616         7.96666
     1999.06366        -7.03501         7.60989
     1999.06640        -9.53586         8.46933
     1999.06914        -6.09872         7.74598
     1999.07187       -12.55257         7.96666
     1999.07461        -1.53642         8.04145
     1999.07735         0.25072         8.10152
     1999.08009       -11.10213         7.72514
     1999.08282         2.11202         7.77663
     1999.08556        -5.17584         7.46890
     1999.08830       -10.26369         8.11133
     1999.09104        13.14446         8.19348
     1999.09378         1.41560         7.90904
     1999.09655       -22.79614         7.87839
     1999.09925       -32.49011         8.07578
     1999.10199       -12.75296         8.08191
     1999.10473        -2.69981         7.63686
     1999.10747        -1.87467         8.10398
     1999.11020        -8.49952         8.00957
     1999.11294       -11.81737         7.91149
     1999.11568        -5.35323         8.08681
     1999.11842       -13.00908         7.98505
     1999.12115       -18.26293         8.20206
     1999.12389       -14.20579         7.96544
     1999.12663       -10.97164         8.34182
     1999.12937        -1.26449         8.26091
     1999.13211         4.52565         7.91517
     1999.13484        -0.03320         8.93522
     1999.13758       -11.37605         8.39577
     1999.14032        -8.12291         7.65158
     1999.14306        -7.57676         7.87471
     1999.14580       -15.18462         8.02183
     1999.14853       -13.49147         7.65525
     1999.15127        -6.00432         7.76437
     1999.15401       -14.73918         7.74353
     1999.15673        -8.67909         7.81586
     1999.15948        -8.05288         7.68345
     1999.16222       -16.64374         7.97402
     1999.16496       -26.77159         8.12114
     1999.16770       -14.04844         7.64299
     1999.17044       -11.12830         7.59273
     1999.17317       -18.96915         7.54246
     1999.17588       -23.02009         7.91640
     1999.17865       -13.45786         7.62828
     1999.18139       -13.30971         7.88820
     1999.18413       -12.70156         7.66261
     1999.18686       -18.45842         7.63319
     1999.18960       -18.86327         7.48239
     1999.19231       -16.52522         7.58414
     1999.19508       -12.39698         7.60866
     1999.19781       -13.17083         7.59886
     1999.20055        -7.72769         7.46277
     1999.20329       -20.77054         7.76437
     1999.20603       -16.24839         7.66138
     1999.20877         0.63175         7.88697
     1999.21150       -11.00610         7.63319
     1999.21424       -13.01595         7.73494
     1999.21698        -8.17081         7.49710
     1999.21972       -22.84566         7.79134
     1999.22246       -18.04951         8.22167
     1999.22519        -5.94337         7.56208
     1999.22793       -11.16222         7.66874
     1999.23067        -0.42107         7.75456
     1999.23341        -7.67393         7.78644
     1999.23614       -21.15778         7.66506
     1999.23888       -24.79464         7.83548
     1999.24162       -15.21249         8.05739
     1999.24436       -18.25234         7.79870
     1999.24710       -14.20020         7.67977
     1999.24983       -22.65505         7.71778
     1999.25257       -20.82790         7.66751
     1999.25531       -18.41576         7.67119
     1999.25805       -11.68061         7.64299
     1999.26079       -17.47646         7.50200
     1999.26352       -22.78232         7.49710
     1999.26626       -19.83417         7.49710
     1999.26900       -16.71702         7.84774
     1999.27172       -19.63393         7.46154
     1999.27447       -21.81773         7.53143
     1999.27721       -26.92458         7.58660
     1999.27995       -15.20944         7.60008
     1999.28269       -27.34129         7.56208
     1999.28543       -22.16015         7.54246
     1999.28816       -13.68200         7.67610
     1999.29090       -22.22785         7.98628
     1999.29364       -13.90571         7.50936
     1999.29638       -10.14356         7.67732
     1999.29911       -13.60441         7.82444
     1999.30185       -13.81127         7.86613
     1999.30454       -20.36628         7.75088
     1999.30734       -24.05893         8.67285
     1999.31007        -5.11183         7.55717
     1999.31280        -7.66668         7.79870
     1999.31554       -14.25553         7.66384
     1999.31828        -4.86439         8.38596
     1999.32102       -15.80124         7.46032
     1999.32376       -14.05609         7.52530
     1999.32649        -7.87696         7.81218
     1999.32923       -19.65782         8.32956
     1999.33196         4.01233         7.84161
     1999.33470        -3.32752         7.98137
     1999.33744       -12.52838         8.09662
     1999.34018        -7.23723         8.07578
     1999.34292         0.97393         7.94582
     1999.34566        -0.78892         8.01202
     1999.34840        -3.71078         7.71655
     1999.35113       -14.71763         7.62460
     1999.35387       -16.20248         7.58047
     1999.35661       -11.23634         7.65525
     1999.35935       -11.20519         7.73494
     1999.36209        -5.67104         7.57801
     1999.36482       -10.13290         7.60621
     1999.36756       -18.16075         7.60866
     1999.37030       -15.27760         7.64667
     1999.37304        -3.16046         7.87961
     1999.37577       -12.61031         7.65525
     1999.37851       -10.39817         7.62828
     1999.38125       -14.26202         7.63809
     1999.38399       -12.37787         7.88574
     1999.38673        -7.81873         7.71042
     1999.38947        -6.18457         8.90824
     1999.39220       -14.79043         9.02349
     1999.39494         4.33871         7.73985
     1999.39768       -13.66814         7.63073
     1999.40042        -9.22799         7.71533
     1999.40315        -5.20885         7.64545
     1999.40589       -10.98870         7.65771
     1999.40863       -11.62155         7.72146
     1999.41137       -12.29141         7.86122
     1999.41410         4.90674         7.94827
     1999.41684        -0.37711         7.70429
     1999.41958        -1.40997         7.97770
     1999.42232         0.21818         7.75579
     1999.42506        -2.08668         7.97892
     1999.42779        -2.88953         7.67119
     1999.43053        -8.50740         7.90414
     1999.43327        -4.60824         7.66629
     1999.43601        -2.76709         7.62706
     1999.43875        -2.81094         7.75947
     1999.44148        -7.68280         8.18612
     1999.44422        -1.75865         7.68836
     1999.44696        -7.02150         7.85509
     1999.44970       -13.04736         8.27562
     1999.45243        -1.97921         7.95931
     1999.45517       -13.20106         7.83670
     1999.45791        -3.21992         7.92253
     1999.46065        -8.29377         8.07578
     1999.46339         3.66638         7.88452
     1999.46612        -7.11548         8.22535
     1999.46886        -1.09733         7.75211
     1999.47152        -0.66543         8.24497
     1999.47436         0.12103         7.98015
     1999.47708         2.92511         8.06107
     1999.47981         3.68825         8.10030
     1999.48255        -0.64160         7.89310
     1999.48529        -5.63145         8.11746
     1999.48803        -4.96331         7.93724
     1999.49076         4.86584         8.58212
     1999.49350         9.91099         8.02306
     1999.49624         4.15813         8.79545
     1999.49898        -2.98072         8.15669
     1999.50172         4.33143         7.91517
     1999.50445         3.03557         7.58782
     1999.50719         0.11672         7.69571
     1999.50993         2.92687         7.79257
     1999.51267         9.69801         8.39822
     1999.51541        -3.12884         9.24540
     1999.51814         1.46130         8.76603
     1999.52088         3.95045         7.79992
     1999.52362         9.07660         7.86368
     1999.52636         9.35174         7.65280
     1999.52909        13.65589         7.61479
     1999.53183        -4.19096         7.70429
     1999.53457        -0.53482         7.60989
     1999.53731         3.67133         7.86735
     1999.54005         4.33448         7.74720
     1999.54278        12.22662         7.70307
     1999.54552         6.24077         7.92498
     1999.54826         9.15092         8.12114
     1999.55100        -0.94194         7.68223
     1999.55374         4.52221         7.77050
     1999.55647        18.08336         7.78031
     1999.55921        11.13150         7.96421
     1999.56195         8.42265         7.72146
     1999.56469        10.24679         8.03532
     1999.56742        13.65494         7.69326
     1999.57016        15.32209         7.58660
     1999.57290        19.78323         7.98260
     1999.57564        14.42038         8.07455
     1999.57838         8.13653         7.79870
     1999.58111         9.68467         7.68713
     1999.58385         8.69182         7.92007
     1999.58659         0.19897         7.80605
     1999.58933         2.02211         8.15056
     1999.59206        10.94026         8.07946
     1999.59480         5.93041         7.92620
     1999.59754        21.93055         8.07455
     1999.60028         3.17970         7.52407
     1999.60302        13.88884         7.90046
     1999.60575        13.04999         8.03900
     1999.60849         7.13414         7.97892
     1999.61123       -10.85672         7.80115
     1999.61397        -9.54657         7.69449
     1999.61671         6.66558         7.65525
     1999.61944         1.51372         8.00222
     1999.62218        12.18687         7.76192
     1999.62492        10.69902         8.04635
     1999.62766         3.17316         7.90781
     1999.63039        11.55831         7.89678
     1999.63313        12.68246         7.90046
     1999.63587         4.62160         7.96053
     1999.63861         5.85775         8.11011
     1999.64135        -1.96010         8.17386
     1999.64408        10.03304         8.56251
     1999.64682         9.96919         8.29891
     1999.64956         2.91133         8.20941
     1999.65230        22.50448         8.33815
     1999.65504        13.60963         8.27807
     1999.65777        18.40077         8.54534
     1999.66051        19.72492         8.71453
     1999.66325        17.17307         8.69124
     1999.66599         9.59221         8.66917
     1999.66872        11.58836         8.38473
     1999.67146         6.37851         7.87471
     1999.67420         6.95265         8.35163
     1999.67694         6.25880         8.26213
     1999.67968        12.65495         7.95808
     1999.68241         8.99609         8.44971
     1999.68515         6.50324         9.55313
     1999.68789         9.84839         7.96176
     1999.69063        13.81053         8.00835
     1999.69337        19.51568         8.00099
     1999.69610        12.80482         9.65857
     1999.69884         7.34897         8.07455
     1999.70158         6.98412         7.90536
     1999.70432         6.62826         7.77418
     1999.70705        18.83041         8.16405
     1999.70979         8.90656         8.17999
     1999.71253        14.37970         8.04022
     1999.71527         7.88685         8.03655
     1999.71801         4.69500         7.78521
     1999.72074         7.55614         8.10520
     1999.72348        13.21529         8.22045
     1999.72602        12.72883         9.60953
     1999.74086        -2.08699        16.69345
     1999.74265         8.37231         8.23761
     1999.74538        -0.18154         8.59561
     1999.74812         5.55861         9.17674
     1999.75086         8.81375         8.61400
     1999.75360         5.65990         8.20941
     1999.75634         9.12105         8.39577
     1999.75907        14.48919         8.28665
     1999.76181         8.20334         8.29769
     1999.76455         7.30049         8.21554
     1999.76729         4.22563         8.26704
     1999.77003         4.93178         8.00712
     1999.77276         6.57693         8.00712
     1999.77550         6.93906         7.96666
     1999.77823         5.50819         8.44358
     1999.78098         3.10137         8.24374
     1999.78371        12.74551         8.20696
     1999.78645         2.98566         8.11378
     1999.78919        -4.19020         7.92866
     1999.79191         4.55591         8.02551
     1999.79467         1.43811         8.32589
     1999.79740        -4.33076         8.80281
     1999.80014        -0.87962         8.68879
     1999.80288       -13.28545        22.64577
     1999.80561        -5.95234        13.74979
     1999.80836         9.56084        14.71098
     1999.81110        15.75399        10.59647
     1999.81384        -5.66186        12.30799
     1999.81657         5.66328        10.25073
     1999.81832        44.33349        32.52379
     1999.82564        14.78127        25.21182
     1999.82751        10.02383        12.98843
     1999.83026         5.26702        12.11673
     1999.83299        -1.08888         9.47834
     1999.83574         0.97832         8.02674
     1999.83847        11.82944         8.09539
     1999.84121        12.39759         8.34550
     1999.84361        15.49273         9.84737
     1999.84669         7.12288         7.98873
     1999.84942         5.45803         8.05126
     1999.85216        14.73617         7.87839
     1999.85490        14.45532         8.24497
     1999.85764         7.17547         7.90046
     1999.86037        20.21261         7.78153
     1999.86311        -3.51924         8.17263
     1999.86585        -7.99009         8.24619
     1999.86859         3.81705         7.76805
     1999.87133        -5.56280         7.81464
     1999.87406        17.45935         8.24129
     1999.87680         7.04049         7.72881
     1999.87954         4.75264         8.08559
     1999.88228         2.48178         8.05371
     1999.88502        -7.18907         8.15547
     1999.88775         5.30608         8.24865
     1999.89049        -6.20278         7.98873
     1999.89323         0.12037         8.12482
     1999.89597        -3.21348         8.31853
     1999.89870        18.64166         8.43745
     1999.90144        10.04381         8.34550
     1999.90418         3.69096         7.72268
     1999.90692        -0.41690         7.84161
     1999.90966       -12.35475         7.99609
     1999.91239         0.78440         8.21432
     1999.91513        -5.17746         8.72924
     1999.91787        -1.19331         8.04022
     1999.92061        17.82284         8.11011
     1999.92334         1.62398         8.10765
     1999.92608         2.12713         8.04881
     1999.92882         4.50227         8.24006
     1999.93156        -2.87758         7.86000
     1999.93430         2.00057         8.47546
     1999.93703        -2.52629         8.04022
     1999.93977        -0.60514         8.02061
     1999.94251        -4.12399         8.31240
     1999.94525        -3.75785         8.03777
     1999.94799         1.05430         8.56986
     1999.95072        -5.87755         8.37493
     1999.95346         2.70959         8.06229
     1999.95620       -11.84826         8.10030
     1999.95894         6.24189         9.82530
     1999.96076        20.36830        17.07965
     1999.96795         7.19770        11.77712
     1999.96989         6.61247         9.39252
     1999.97263        -7.57838         8.88495
     1999.97536         0.37876         8.19715
     1999.97810        -7.77009         7.85509
     1999.98084        -4.39894         7.82322
     1999.98358        -1.18180         7.83303
     1999.98905       -10.02850         8.25723
     1999.99179       -10.70836         8.10275
     1999.99453       -12.08921         7.78276
     1999.99727        -0.75806         8.53186
     2000.00274         9.50523         7.98750
     2000.00548         3.36038         7.67487
     2000.00822         8.55652         8.07210
     2000.01096         8.47267         7.76192
     2000.01369       -12.17418         7.97034
     2000.01643        -3.67804         7.87839
     2000.01917        -3.52489         7.65893
     2000.02191        -3.95175         7.77786
     2000.02465        -0.65060         8.17263
     2000.02738       -19.93245        11.18618
     2000.03012       -16.73031         7.98137
     2000.03286       -17.22916         7.78889
     2000.03560        19.51499         7.91272
     2000.03833         1.64413         7.63073
     2000.04107         1.50028         7.52407
     2000.04381         0.29643         7.71655
     2000.04655         0.55757         8.39086
     2000.04929         0.25372         7.81586
     2000.05083       -15.50068        29.73338
     2000.05554        -2.85967        11.49024
     2000.05750         2.19216         7.78153
     2000.05940         5.00180        13.36727
     2000.06371       -13.80737        10.34514
     2000.06531        -6.27459         9.26011
     2000.07197         0.45122        12.63043
     2000.07393        -5.53796         9.17061
     2000.07666        -4.50182         8.23761
     2000.07940         0.32633         8.52205
     2000.08214       -13.70852         8.06352
     2000.08488        -8.30038         8.10520
     2000.08762        -8.60523         8.03900
     2000.09035        -2.40508         7.96053
     2000.09309         2.18206         7.51058
     2000.09583        -0.34679         7.71042
     2000.10136        -6.77733         7.98628
     2000.10404        -5.06937         7.85142
     2000.10678         0.73180         8.56741
     2000.10952        -1.61506         7.51181
     2000.11226         3.21309         7.32178
     2000.11499       -12.93977         7.76314
     2000.11773        -0.12562         7.48239
     2000.12047       -11.34947         7.78889
     2000.12321        -1.73333         7.67364
     2000.12595        -2.38418         7.48116
     2000.12868        -0.26803         7.29971
     2000.13142        -3.15489         7.45541
     2000.13416        -1.05574         8.52573
     2000.13690         1.88141         7.73004
     2000.13964         5.21455         7.65280
     2000.14237         5.64270         7.68713
     2000.14511         4.45185         7.88574
     2000.14785        -3.35601         7.43334
     2000.15059         3.91214         7.42721
     2000.15332        14.78729         7.50813
     2000.15606        16.67943         7.40760
     2000.15880         8.76958         7.82322
     2000.16154        -1.93728         7.71410
     2000.16428         8.23887         7.66751
     2000.16701         8.01500         7.68223
     2000.16952        13.13149         9.74929
     2000.17249        10.77531         7.77295
     2000.17523        14.30346         7.53633
     2000.17797         1.48760         8.60787
     2000.18070         2.80475         8.76603
     2000.18416         6.23705        11.32227
     2000.18618         2.04204         8.32711
     2000.18892         6.66519         8.45462
     2000.19165        13.22734         8.09907
     2000.19439        -1.07552         7.75824
     2000.19713         4.20363         7.72881
     2000.19987        14.71578         9.06027
     2000.20261        -3.76008         7.81586
     2000.20534        -8.17293         8.20206
     2000.20808         3.84321         8.01080
     2000.21082         2.01736         8.03409
     2000.21356        12.63751         8.04758
     2000.21629        -2.62035         8.00222
     2000.21903         0.13880         7.80360
     2000.22177        -3.92205         7.96666
     2000.22451        -4.28691         8.33569
     2000.22725         0.30824         7.86858
     2000.22998         2.89639         7.67610
     2000.23272         6.51153         8.28543
     2000.23546         0.35268         8.44603
     2000.23820         0.58783         7.94459
     2000.24094         3.29897         8.02551
     2000.24367         5.56812         8.16895
     2000.24641        -7.92673         8.46075
     2000.24824        -0.87330        14.99542
     2000.25523        -3.50550        10.43218
     2000.25736        -7.21315         7.90046
     2000.26010         0.93700         7.92253
     2000.26284        -2.48186         8.41171
     2000.26558        -2.29871         8.17141
     2000.26831        -4.31256         8.14566
     2000.27105         5.37658         7.98505
     2000.27379        -1.04027         8.14076
     2000.27653        -1.44112         7.80728
     2000.27927         0.29102         8.27194
     2000.28200        -3.82783         8.27562
     2000.28474         5.47130         8.04022
     2000.28748         4.05746         8.69982
     2000.29022         5.86061         8.02183
     2000.29295         6.77876         7.93356
     2000.29569         5.86490         7.79747
     2000.29843         3.99305         8.22045
     2000.30117         1.94119         8.06107
     2000.30391        -0.16366         8.13463
     2000.30664        17.57149         8.18122
     2000.30938         6.93063         7.97647
     2000.31212        -1.01222         8.30259
     2000.31486         7.12193         8.18980
     2000.31760         1.04307         8.12727
     2000.31993        -2.12997         9.21843
     2000.32370         0.69623        10.96060
     2000.32581         4.67051         8.01570
     2000.32855        -3.67234         8.06229
     2000.33128         2.22181         8.13585
     2000.33402         9.88195         8.34795
     2000.33673         3.71001         8.39209
     2000.34009        15.81601        10.69700
     2000.34224         3.49339         8.09907
     2000.34497        10.78554         8.56496
     2000.34771         8.27368         8.10520
     2000.35045         8.93283         8.26336
     2000.35319        -0.87302         7.96176
     2000.35593        11.25512         8.05739
     2000.35866         4.19827         8.24497
     2000.36140        11.72742         8.32466
     2000.36414         0.84356         7.92988
     2000.36688         2.87071         8.06965
     2000.36961         1.58886         8.35041
     2000.37235        -4.41600         8.23884
     2000.37509        -3.85885         8.32098
     2000.37783         0.30230         8.20206
     2000.38057         8.65144         8.25355
     2000.38330        15.55759         8.11624
     2000.38604         4.84673         8.42397
     2000.38878        -0.84012         8.79668
     2000.39152         5.64903         8.61032
     2000.39426        21.03017         9.27482
     2000.39699        20.04432         8.43500
     2000.39971         5.18341         8.44849
     2000.40247         8.00161         8.72189
     2000.40521         7.04376         8.35531
     2000.40794         5.13191         7.90414
     2000.41068        -0.45595         8.03777
     2000.41342        -1.97780         8.08559
     2000.41616         9.28835         8.34428
     2000.41890         6.19249         7.74720
     2000.42163         7.71664         7.98137
     2000.42437         6.39679         7.70920
     2000.42711        11.35193         8.18980
     2000.42985         5.05508         7.68590
     2000.43259         9.28322         8.63239
     2000.43532         7.71037         7.84651
     2000.43795         3.50618         9.20984
     2000.44686         2.15071        11.33576
     2000.44902         2.53412         7.86981
     2000.45175        12.80025         8.17754
     2000.45449         0.10940         8.56496
     2000.45723         9.42854         7.77173
     2000.45996        13.69969         7.67119
     2000.46270        21.97784         7.80851
     2000.46544         2.60300         8.00589
     2000.46818         8.88213         8.34182
     2000.47092        17.21128         8.44971
     2000.47365        15.75442         8.01325
     2000.47639        16.43657         7.92620
     2000.47913         5.60771         8.08068
     2000.48187         8.49586         7.72514
     2000.48460         3.06801         7.95685
     2000.48734         7.56115         8.34428
     2000.49008        11.18930         8.35654
     2000.49282        20.02745         8.13340
     2000.49556        18.52459         8.04268
     2000.49829        20.37474         7.91149
     2000.50103        10.58189         8.36389
     2000.50377        20.31503         7.69939
     2000.50651        15.20019         8.02183
     2000.50925         9.78234         8.11011
     2000.51198         6.31747         7.87226
     2000.51472        10.93962         7.97770
     2000.51746        12.88377         7.92130
     2000.52020         0.54493         8.06229
     2000.52293        13.02106         8.18367
     2000.52567        13.72920         7.76437
     2000.52841         6.47537         8.24252
     2000.53115        20.43650         7.81954
     2000.53389        20.19364         8.75622
     2000.53662         6.75579         8.40558
     2000.53936        11.23394         8.09907
     2000.54210         9.78808         8.36144
     2000.54484        11.56223         8.10275
     2000.54757         0.46638         8.56005
     2000.55031        19.58352         8.14934
     2000.55306         8.22168         8.05739
     2000.55579         9.89182         8.25600
     2000.55853         1.63296         8.08436
     2000.56126        17.33111         8.33692
     2000.56400        24.23726         8.02183
     2000.56674         4.22540         8.19715
     2000.56948        14.65455         8.10520
     2000.57222        12.20569         8.79668
     2000.57495        13.25284         8.50243
     2000.57769         6.49899         8.31608
     2000.58043         0.77115         8.35286
     2000.58317        15.42228         8.98671
     2000.58590         4.40543         8.45952
     2000.58864        12.04257         9.36923
     2000.59139        11.37373         9.06027
     2000.59412        10.08387         8.69737
     2000.59686        16.06201         8.60910
     2000.59959        21.66816         8.47546
     2000.60233        12.49931         9.58010
     2000.60507        28.03147         9.76278
     2000.60781        14.79360         9.72232
     2000.61055         9.26476         8.55638
     2000.61328        12.28289         8.99406
     2000.61602        17.63004         8.46688
     2000.61876        18.60120         8.84939
     2000.62150         8.04233         8.41416
     2000.62423        12.78048         8.63852
     2000.62697        14.35362         8.86288
     2000.62971        28.54677         8.50611
     2000.63245        17.69493         8.19715
     2000.63519        12.07206         9.20004
     2000.63793         8.95622         7.92130
     2000.64066        12.43836         8.03287
     2000.64340        13.11050         7.91517
     2000.64614         5.63865         8.90457
     2000.64888        23.84580         8.90824
     2000.65162        19.69596         8.66181
     2000.65435        17.79109         8.39945
     2000.65709         5.50024         8.68388
     2000.65983         2.51638         8.81507
     2000.66256         4.30853         8.60787
     2000.66530        17.18467         8.52573
     2000.66804        10.84682         8.55883
     2000.67078        10.41897         8.29156
     2000.67352        13.76211         8.02919
     2000.67625        16.18026         8.41416
     2000.67899         6.77441         8.48649
     2000.68173        11.84455         8.24865
     2000.68447         4.73770         8.13585
     2000.68721         8.43685         8.61155
     2000.68994         8.46099         8.59438
     2000.69268        -1.07786         8.60910
     2000.69542        12.66429         8.14566
     2000.69816         7.92343         7.86122
     2000.70089        19.73158         8.08681
     2000.70363         3.71773         8.34673
     2000.70637         0.96387         8.27317
     2000.70911         8.50902         7.93111
     2000.71185         0.89816         8.13217
     2000.71458        14.36931         8.19348
     2000.71732        24.43946         8.94993
     2000.72006         7.57762         8.01570
     2000.72280        18.37375         8.13340
     2000.72554        11.32190         7.76682
     2000.72827         6.75604         7.81218
     2000.73101         2.20019         7.97770
     2000.73358        11.22683         8.49998
     2000.73922        -2.21637         8.65201
     2000.74196         5.63478         8.43868
     2000.74470         9.42992         8.79055
     2000.74744        16.84507         8.17876
     2000.75018         9.72222         8.94135
     2000.75291        13.79136         8.05126
     2000.75565         0.86451         8.11133
     2000.75839        17.65265         8.82487
     2000.76113         9.46880         8.37860
     2000.76387         8.77295         7.83670
     2000.76660         8.33009         7.76927
     2000.76934         7.05224         7.82935
     2000.77208        13.04039         7.84651
     2000.77482        15.77953         8.26949
     2000.77755         6.45868         7.89310
     2000.78029         7.53183         8.10152
     2000.78303        12.12397         8.10765
     2000.78577        13.40412         8.36512
     2000.78851        13.07727         7.86000
     2000.79124         4.52941         7.87348
     2000.79398        18.70956         8.38596
     2000.79672        12.36171         8.64097
     2000.79946        12.01885         8.15302
     2000.80220        16.35200         7.88820
     2000.80493        11.44414         8.01325
     2000.80767         4.97029         9.53351
     2000.81041         6.28344         7.82444
     2000.81315         4.77258         7.84529
     2000.81588         7.44373         7.67364
     2000.81862         3.25388         8.23026
     2000.82136         9.67602         7.83057
     2000.82410        18.50617         7.71165
     2000.82684        12.34232         7.89923
     2000.82957        11.11046         8.00957
     2000.83231         1.45461         7.86981
     2000.83505        10.69976         7.78766
     2000.83779         7.91790         7.66261
     2000.84052         7.65705         7.55962
     2000.84326        11.93020         7.98260
     2000.84600        10.44134         7.72146
     2000.84874        -3.27851         7.77540
     2000.85148        -0.23537         7.78276
     2000.85421         5.19578         7.76192
     2000.85695        12.36093         7.72514
     2000.85969        11.90207         8.17508
     2000.86243        -0.76878         7.63686
     2000.86517         8.64037         7.50078
     2000.86790         2.01151         7.54246
     2000.87064         4.83466         7.64545
     2000.87338         9.74281         9.21230
     2000.87612        11.41495         7.80115
     2000.87885         4.95210         7.57924
     2000.88159         1.51625         7.59273
     2000.88433         6.45939         7.79992
     2000.88707         5.07154         7.77908
     2000.88981         9.41169         7.66384
     2000.89254         6.57683         7.67364
     2000.89528         9.22798         7.85264
     2000.89802        15.59212         7.88329
     2000.90076         0.11027         7.73985
     2000.90350         6.64642         7.80360
     2000.90623        13.77356         9.10931
     2000.90897         2.40071         9.14977
     2000.91171        11.73286         8.26336
     2000.91445         9.70500         7.86000
     2000.91718         1.84515         8.12727
     2000.91992        13.38530         8.57354
     2000.92266        -0.55056         7.89801
     2000.92540        -3.77541         8.79545
     2000.92814         2.55574         8.18122
     2000.93087         0.55588         7.83670
     2000.93361        -2.46997         7.83793
     2000.93635         6.04118         8.14198
     2000.93909        -5.21968         7.72759
     2000.94183        -3.90753         7.76682
     2000.94456         6.52661         7.92498
     2000.94730         3.25076         7.67855
     2000.95004         3.86691         7.66751
     2000.95278         3.56905         7.36469
     2000.95551        22.03420         7.60008
     2000.95825        10.31835         7.43702
     2000.96373        13.30165         7.51058
     2000.96647         0.70479         8.34182
     2000.96920         4.81493         7.77540
     2000.97194         5.12408         7.73127
     2000.97468        -3.24377         7.53265
     2000.97742       -24.98163         7.59886
     2000.98016       -20.26148         7.49342
     2000.98289        -5.36633         7.34752
     2000.98563        -2.82319         7.31442
     2000.98837        -4.07704         7.71410
     2000.99111         2.23410         7.66629
     2000.99385         0.97427         9.25153
     2000.99658        -1.24060         7.23596
     2000.99932        11.85454         7.46277
     2001.00480         3.36784         7.62215
     2001.00753         2.38898         7.82935
     2001.01027         1.22113         7.73740
     2001.01301        10.22328         7.84529
     2001.01575         7.12942         7.73617
     2001.01849         1.65357         7.41005
     2001.02122        11.92072         7.57434
     2001.02396         8.68686         7.47135
     2001.02670        17.39501         7.49832
     2001.02944        -1.98385         7.81464
     2001.03217         4.61330         7.53633
     2001.03491         6.23545         7.72514
     2001.03765       -10.47241         7.53388
     2001.04039        -0.97726         7.41250
     2001.04313        -1.18111         7.41618
     2001.04586         1.32603         7.87594
     2001.04860        -0.32182         7.36959
     2001.05134         9.91833         7.54246
     2001.05411        -0.81544         7.49710
     2001.05682         9.40762         7.42231
     2001.05955         2.60877         7.51058
     2001.06229         5.94291         8.09785
     2001.06503        11.72406         7.84283
     2001.06777         7.96721         8.00957
     2001.07050         0.62335         7.78889
     2001.07324         6.22150         7.87348
     2001.07598        11.36564         7.85142
     2001.07872         5.11379         7.87471
     2001.08146        -0.07706         7.64054
     2001.08419         1.50408         8.03287
     2001.08693         6.71623         7.61847
     2001.08967        18.86538         8.24865
     2001.09241         0.96052         7.78031
     2001.09515         7.01867         7.81341
     2001.09788        -0.29218         7.95072
     2001.10062        -0.20004         7.51671
     2001.10336         0.93211         7.59763
     2001.10610        -4.76374         7.67610
     2001.10883        -1.81760         7.66997
     2001.11157        -2.08645         7.39779
     2001.11431         4.10270         7.66016
     2001.11705        -0.04516         7.71042
     2001.11979         4.59799         7.50691
     2001.12252         4.54813         7.66997
     2001.12526         2.52928         7.83303
     2001.12800        -2.28857         7.32668
     2001.13074         0.33857         7.34630
     2001.13347         3.74972         7.44070
     2001.13621         4.31887         7.28500
     2001.13895         2.54801         7.82812
     2001.14169        15.81016         7.48606
     2001.14443        -1.75569         7.39289
     2001.14716         2.60145         7.47503
     2001.14990         2.77260         7.70675
     2001.15264         0.67675         7.67977
     2001.15538         9.02689         7.56698
     2001.15812        -2.73596         7.60376
     2001.16085         7.39119         7.99731
     2001.16359        11.19833         7.84896
     2001.16633         3.26548         8.04390
     2001.16907       -10.51638         8.36267
     2001.17180         4.21177         7.67487
     2001.17454       -18.11108         7.79625
     2001.17728        -5.59694         7.64912
     2001.18002         1.82521         7.60008
     2001.18276         0.50236         7.66629
     2001.18549         6.82050         7.95563
     2001.18823         1.81765         7.87839
     2001.19097         4.42080         7.72146
     2001.19371         6.94794         8.37493
     2001.19642         8.11702         7.89433
     2001.19918         4.73224         7.68100
     2001.20192         7.27038         7.51058
     2001.20466         8.04653         7.84774
     2001.20740        -5.32932         7.80115
     2001.21013        -0.62218         7.71901
     2001.21287        -1.47603         7.78644
     2001.21561        -3.20389         7.86000
     2001.21835         0.24626         8.12604
     2001.22109         4.85541         7.93969
     2001.22382         4.03955         7.73127
     2001.22656        10.26670         7.85142
     2001.22930        11.37085         7.92130
     2001.23204         4.50299         8.05861
     2001.23478         8.54414         8.01938
     2001.23751        12.48129         8.34305
     2001.24025         2.36843         7.86000
     2001.24299         1.88258         7.93111
     2001.24573         3.81173         9.12280
     2001.24846        13.36087         7.80360
     2001.25120        12.44002         7.85264
     2001.25394         6.20717         7.89187
     2001.25668        10.39531         7.73004
     2001.25942         1.05846         8.07946
     2001.26215        10.87160         8.07333
     2001.26489        12.97775         7.79870
     2001.26763         8.21190         7.93724
     2001.27037         8.09804         7.90781
     2001.27311         7.72519         7.87961
     2001.27584        21.10134         8.10643
     2001.27858        17.55748         8.06720
     2001.28132        -1.91437         7.95318
     2001.28406         3.03778         8.15792
     2001.28679         3.58792         8.32834
     2001.28953         9.75807         8.53431
     2001.29227         1.69722         8.28420
     2001.29501         5.89936         8.47546
     2001.29775         6.49051         7.74475
     2001.30048        12.41066         7.84406
     2001.30322        10.41680         7.80728
     2001.30596        12.52495         8.25968
     2001.30870        16.40809         7.87348
     2001.31144         8.79624         7.97034
     2001.31417        28.88539        16.31829
     2001.31691         9.32453         8.13095
     2001.31965        20.08668         7.90046
     2001.32239        19.56283         7.95195
     2001.32512         4.69197         7.86858
     2001.32786         4.42012         8.23761
     2001.33060         9.05827         8.02428
     2001.33334         7.09341         7.72023
     2001.33608         3.50356         7.79747
     2001.33881         8.67771         7.92498
     2001.34155         6.83085         7.95808
     2001.34429         6.83700         7.83670
     2001.34703        11.66815         8.06107
     2001.34977         0.13829         8.00344
     2001.35250        13.54144         7.79257
     2001.35524        14.63758         7.72881
     2001.35798        10.96373         7.92253
     2001.36072        17.21688         8.07087
     2001.36345        23.35501         8.03655
     2001.36619        14.89617         8.13953
     2001.36893        18.35432         7.75947
     2001.37167        -1.04154         8.16282
     2001.37441        10.33761         8.19838
     2001.37714        12.04776         7.79502
     2001.37988         3.33390         7.80360
     2001.38262        11.68905         7.97157
     2001.38536        10.47220         7.74107
     2001.38810         9.27734         7.98750
     2001.39083        15.65349         7.97770
     2001.39357        13.19764         7.98996
     2001.39631        16.75278         7.82199
     2001.39905        18.19193         7.83303
     2001.40178        14.12206         8.24987
     2001.40452        24.08222         9.57397
     2001.40726         9.07337         7.97524
     2001.41000        16.70751         8.39086
     2001.41274        12.60366         7.81464
     2001.41547        14.65081        10.73624
     2001.41821        21.52595         8.05003
     2001.42095        14.09810         8.04268
     2001.42369         9.51825         9.02717
     2001.42643        26.10639        10.84290
     2001.42916        10.97754         7.92743
     2001.43190        14.96869         8.00712
     2001.43464        20.10483         7.67732
     2001.43738         8.22198         7.90904
     2001.44011        21.50913         7.87103
     2001.44285        14.26527         7.55104
     2001.44559        10.86442         7.63809
     2001.44833        14.97856         7.46154
     2001.45107        17.65771         7.77908
     2001.45380         9.79286         7.62460
     2001.45654        13.05900         7.47380
     2001.45928        17.61315         7.75333
     2001.46202        16.72830         7.62215
     2001.46475        18.45144         7.70184
     2001.46749        15.98859         7.93846
     2001.47023        11.30774         7.95318
     2001.47297        21.81888         7.93479
     2001.47571        21.55803         7.74966
     2001.47844        21.71818         7.53388
     2001.48118         8.93932         7.64422
     2001.48392        10.64447         7.57556
     2001.48666        15.24962         8.09785
     2001.48940        12.61276         7.41495
     2001.49213        11.95491         7.35733
     2001.49487        20.25205         7.53633
     2001.49761        22.07320         7.55840
     2001.50035        13.97835         7.47135
     2001.50308         8.25149         8.60542
     2001.50582        17.23464         7.45051
     2001.50856        14.20679         7.58660
     2001.51130        24.10793         7.81341
     2001.51302         2.28105        14.91450
     2001.51697        21.69282         8.08191
     2001.51951        11.23837         7.55717
     2001.52225         4.83052         7.78399
     2001.52499        13.31767         7.67487
     2001.52773        16.60581         7.78399
     2001.53046        13.69896         7.75947
     2001.53320        20.20511         7.64422
     2001.53594        21.68125         7.80728
     2001.53868        18.82540         7.37450
     2001.54141        15.03954         7.47380
     2001.54415        16.69469         7.70797
     2001.54689        11.81384         7.56698
     2001.54963        15.00698         7.89555
     2001.55237        15.30313         7.52162
     2001.55510        18.64328         7.58169
     2001.55784        18.64442         7.79257
     2001.56058        31.20757        17.74047
     2001.56332        29.75672         7.59150
     2001.56606        20.15986         8.02061
     2001.56879        27.91901         8.12482
     2001.57153        12.99416         8.09049
     2001.57427        18.48630         7.86122
     2001.57701        23.81345         8.05371
     2001.57974        14.37560         7.94950
     2001.58248        28.08274         8.02306
     2001.58523        34.00590         8.05248
     2001.58796        43.28303         8.22045
     2001.59070        38.09918         8.21922
     2001.59342        12.98429         7.90781
     2001.59617        33.70647         7.94950
     2001.59891        16.71162         8.07087
     2001.60165        12.11577         8.36512
     2001.60439        28.07091         8.29523
     2001.60712        20.16506         7.93724
     2001.60986        22.91921         7.85264
     2001.61260        18.42935         8.08681
     2001.61534        13.95050         8.11624
     2001.61807        33.01965         8.21309
     2001.62081        23.55579         8.08559
     2001.62355        20.16494         7.93601
     2001.62629        14.89209        10.02024
     2001.62903        14.89023         8.43500
     2001.63176        30.22538         8.20696
     2001.63450        13.47752         8.28175
     2001.63724         7.71167         8.69369
     2001.63998        25.30882         7.84651
     2001.64272        14.43396         8.23026
     2001.64546        20.99012         8.00099
     2001.64819        18.01926         8.14934
     2001.65093        17.43542         7.95072
     2001.65367        20.28455         8.08313
     2001.65640        21.19770         8.13095
     2001.65914        19.05984         7.97647
     2001.66188        28.40399         8.05616
     2001.66462        40.94214         8.81752
     2001.66736        30.74828         8.33324
     2001.67009        37.23143         8.21064
     2001.67283        39.54558         8.15302
     2001.67557        30.76572         8.73170
     2001.67831        30.77087         8.77829
     2001.68105        25.91701         7.80238
     2001.68378        16.46016         7.64422
     2001.68652        15.19631         7.81586
     2001.68926        20.57545         7.85877
     2001.69200        23.61860         7.79502
     2001.69473        25.92775         7.88820
     2001.69747        28.00289         8.35408
     2001.70021        28.70504         8.89721
     2001.70295        20.75519         7.69449
     2001.70569        23.85433         7.91762
     2001.70842        27.33648         8.07455
     2001.71116        26.42563         7.84283
     2001.71390        40.97377         8.20819
     2001.71664        21.72992         7.78276
     2001.71938        21.94507         9.41091
     2001.72211        24.90521         8.73783
     2001.72485        22.60936         7.67487
     2001.72759        24.00350         8.00589
     2001.73032        37.43964         7.91149
     2001.73306        31.86080         8.08559
     2001.73580        28.42594        10.02392
     2001.73854        24.38810         9.25643
     2001.74127        27.52422         8.58457
     2001.74402        10.49740        11.08933
     2001.74676        26.43154        10.78895
     2001.74949        23.69368        10.75585
     2001.75223        27.30784         9.70883
     2001.75497        24.00298         9.50041
     2001.75770        23.23812         9.83879
     2001.76045        28.40428        11.56502
     2001.76319        39.99042         8.58335
     2001.76592        31.89355         9.24662
     2001.76866        27.43570         8.53431
     2001.77139        20.44585         9.20126
     2001.77413        24.92099         7.95318
     2001.77687        26.15314         7.62583
     2001.77961        35.83429         8.11624
     2001.78235        15.96943         8.07946
     2001.78508        24.87858         8.17263
     2001.78782        26.08873         7.87471
     2001.79056        22.73687         7.85877
     2001.79330        17.81602         9.01368
     2001.79603        22.87317         7.60499
     2001.79877        17.27531         8.00589
     2001.80151        26.79546         7.54123
     2001.80425        26.43561         7.72146
     2001.80699        32.37675         8.28052
     2001.80972        35.47790         7.82935
     2001.81246        21.44904         7.51058
     2001.81520        16.17619         7.85264
     2001.81794        23.75534         7.74230
     2001.82065        24.41740         8.31240
     2001.82349        24.16987         8.70718
     2001.82615        24.28178         7.57924
     2001.82889        17.12892         7.69571
     2001.83163        27.22307         7.96053
     2001.83436        28.56022         9.55926
     2001.83710        33.14836         7.84283
     2001.83984        32.20451         7.73985
     2001.84258        17.74166         7.77540
     2001.84532        27.03380         8.27317
     2001.84805        43.23495        10.18698
     2001.85079        10.30710         7.74475
     2001.85353        16.57224         8.07333
     2001.85627        12.93339         7.79870
     2001.85901        22.10956         7.51058
     2001.86174        21.69368         7.74598
     2001.86448        21.56183         7.65771
     2001.86722        26.42597         8.01325
     2001.86996        22.67612         7.83057
     2001.87269        24.59827         7.64545
     2001.87543        14.35041         8.70472
     2001.87817        25.37156         7.71410
     2001.88091        22.97371         7.62338
     2001.88365        17.63885         7.73127
     2001.88637        19.05097         7.88574
     2001.88912         6.07615         7.84774
     2001.89186        23.60229         8.00712
     2001.89460        10.64144         7.83670
     2001.89730        25.78149         9.06272
     2001.90007        21.14473         9.80078
     2001.90281        21.58988         7.85755
     2001.90555        13.47502         7.79134
     2001.90829        14.46017         7.81464
     2001.91102        31.73832         7.67732
     2001.91376        15.41546         7.73617
     2001.91650        22.52661         7.51917
     2001.91924        38.14876         8.06842
     2001.92198        -1.89710         7.67364
     2001.92471         7.13905         7.45909
     2001.92745         9.50820         7.52897
     2001.93019        15.81234         8.28297
     2001.93293         5.01949         7.59395
     2001.93567         7.15664         7.54369
     2001.93840        18.93878         7.73004
     2001.94114        22.36593         8.32466
     2001.94388        22.01808         7.72391
     2001.94662         7.43422         7.85509
     2001.94935        26.32937         7.57556
     2001.95209        34.47451         7.53878
     2001.95483        34.66966         7.42844
     2001.95757        11.50981         7.84283
     2001.96031        10.58295         7.75947
     2001.96304        10.41910         7.63196
     2001.96578        10.55025         7.32178
     2001.96852         8.40439         7.53265
     2001.97126        -9.13046         7.40269
     2001.97400        -5.79131         7.69939
     2001.97673        -5.33517         7.66751
     2001.97947         0.31698         7.49832
     2001.98221         0.31813         7.37940
     2001.98495         1.92827         7.44928
     2001.98768        13.01842         7.50691
     2001.99042         5.57557         7.60989
     2001.99316        10.05571         7.39289
     2001.99590         8.96586         7.58047
     2001.99864        -0.52300         7.93724
     2002.00959        13.46159         7.85509
     2002.01233        17.16074         7.71533
     2002.01506        21.56888         7.84406
     2002.01780        14.19803         7.63319
     2002.02053        16.26116         8.01570
     2002.02329        11.91835         7.96544
     2002.02601         5.06446         8.25968
     2002.02875        -0.34438         8.09172
     2002.03149        12.97676         8.31117
     2002.03423         7.74991         7.75579
     2002.03697         6.55206         7.78031
     2002.03970        10.93720         8.05003
     2002.04244         9.00935         7.96421
     2002.04518         1.49749         7.99731
     2002.04792        11.09864         8.19838
     2002.05065        27.44379         7.64545
     2002.05339        19.72693         7.44315
     2002.05613        -7.19992         7.82812
     2002.05887        15.41923         7.69571
     2002.06161         7.74537         7.60253
     2002.06435         0.87253         7.60621
     2002.06708         6.15767         7.58782
     2002.06982        17.83381         7.58905
     2002.07256        15.30896         7.52039
     2002.07530        12.19011         7.72881
     2002.07803         6.73125         7.94214
     2002.08077        11.07240         7.70062
     2002.08351        10.28555         7.48852
     2002.08625         2.75669         7.66261
     2002.08898         8.98084         7.84529
     2002.09172        -6.99302         7.56330
     2002.09446        -4.66787         7.57556
     2002.09720        -2.48672         8.05616
     2002.09994         7.86142         7.73249
     2002.10267        15.10757         7.88452
     2002.10541       -11.26128         8.12850
     2002.10815         1.60786         7.69571
     2002.11089        -4.73199         7.92866
     2002.11362         2.79214         8.50366
     2002.11636         0.42530         8.93889
     2002.11910        16.35045        11.50004
     2002.12184         1.95260         8.07823
     2002.12458         2.08574         7.80483
     2002.12731         7.58289         7.75701
     2002.12967        13.42890         9.00755
     2002.13287        13.67141         7.93969
     2002.13553        10.51233         8.13708
     2002.13827        11.09347         8.12604
     2002.14100         3.28762         8.08681
     2002.14374        -3.88723         8.02796
     2002.14648         4.82691         7.99609
     2002.14922        -1.13194         8.09417
     2002.15196        -0.44979         7.82444
     2002.15469         2.27035         8.10765
     2002.15743         2.76549         8.23393
     2002.16017         4.94665         8.02183
     2002.16291        -1.19521         8.18244
     2002.16564        -2.65206         8.01448
     2002.16838        -2.03191         7.97402
     2002.17112         2.00323         7.72146
     2002.17386         7.51338         8.01325
     2002.17660         6.25453         7.93356
     2002.17933         0.36067         7.95931
     2002.18207        -6.03818         7.84161
     2002.18481        -6.56804         7.92375
     2002.18755         5.53411         7.65403
     2002.19029        16.86926         8.09662
     2002.19302        21.23140         7.89433
     2002.19576        19.88755         7.94337
     2002.19850         5.17470         7.65035
     2002.20124         4.86384         8.01815
     2002.20397        18.89899         7.79257
     2002.20671         4.03514         7.78521
     2002.20945        13.91328         8.45952
     2002.21219        19.19943         8.06597
     2002.21493        -0.86242         7.83180
     2002.21766        -7.09828         7.96911
     2002.22040         6.25087         8.80035
     2002.22314         8.94502         8.46810
     2002.22588        -8.80784         8.60542
     2002.22862         1.78831         8.61768
     2002.23135         2.22045         8.25600
     2002.23409        -1.52240         9.22333
     2002.23683         7.78275         8.03164
     2002.23957       -13.88311         7.87716
     2002.24230        -1.64196         7.99609
     2002.24504         6.83319         7.86000
     2002.24778        -8.30367         8.18980
     2002.25052         2.11648         7.82199
     2002.25326        -0.73437         7.67242
     2002.25585        -0.33165         8.13217
     2002.25873         9.18392         8.24987
     2002.26147         5.86307         8.11011
     2002.26421         5.23721         7.81586
     2002.26695         5.11336         8.18980
     2002.26968         3.61751         8.41293
     2002.27242        -1.97235         8.11256
     2002.27516         4.04380         7.84651
     2002.27790         9.05194         7.88329
     2002.28063         3.89809         8.30627
     2002.28337         5.49124         7.95318
     2002.28611        11.14438         7.88329
     2002.28885        18.89953         7.84529
     2002.29159        14.51268         8.24742
     2002.29432         9.60582         8.54166
     2002.29706         1.84697         7.53143
     2002.29980        -1.41388         7.87594
     2002.30254         3.31026         7.69203
     2002.30528         8.35441         8.23884
     2002.30801         3.21256         7.88574
     2002.31075         5.12070         7.65403
     2002.31349        11.98385         8.53921
     2002.31623         6.94300         7.73985
     2002.31896         6.45614         7.62338
     2002.32170         8.83129         7.54859
     2002.32444         2.58843         7.71901
     2002.32718         7.62158         7.70062
     2002.32992         6.82473         7.72146
     2002.33265         7.66487         7.81218
     2002.33539        14.07302         7.97524
     2002.33813         5.70017         7.63809
     2002.34087         5.54031         7.71410
     2002.34361        -5.34054         7.98383
     2002.34634        -1.93939         7.69449
     2002.34908         2.89775         7.56698
     2002.35182         1.90090         7.55104
     2002.35456         6.51305         7.55472
     2002.35729        -0.48081         7.56943
     2002.36003         0.16534         7.63073
     2002.36277        -2.16251         7.62460
     2002.36551        19.59363         7.61602
     2002.36825         6.49278         7.63686
     2002.37098         9.83092         7.48852
     2002.37372         3.26207         7.57066
     2002.37646         1.15422         7.57311
     2002.37920        13.69536         7.60866
     2002.38193         9.62051         7.54859
     2002.38467         4.22266         7.36101
     2002.38741         6.80880         7.49465
     2002.39015         9.58396         7.53756
     2002.39289         6.27610         7.71901
     2002.39562         5.97624         7.56453
     2002.39836         6.03039         7.57679
     2002.40110        22.02052         8.06474
     2002.40385         2.75272         7.54859
     2002.40658         4.05383         7.65525
     2002.40931        11.62496         7.91885
     2002.41206         7.09514         8.25845
     2002.41478        17.15725         9.01000
     2002.41752        11.53240         7.70184
     2002.42026         8.05355         7.91517
     2002.42299        22.56566         8.55025
     2002.42542         8.37089        11.88747
     2002.42848        17.26000         7.40882
     2002.43122         9.28015         7.74353
     2002.43395         9.03429         7.59518
     2002.43669        14.96444         7.55349
     2002.43943        13.89159         7.56943
     2002.44217        12.10873         7.61112
     2002.44491        15.38588         7.71655
     2002.44764        16.79903         7.86368
     2002.45038        16.31517         7.98137
     2002.45312        13.87232         7.71410
     2002.45586        24.35646         8.02551
     2002.45859        22.84361         7.66138
     2002.46216        25.37622        22.87994
     2002.46399        16.51468        53.58310
     2002.46672         0.88378        20.73441
     2002.47228        20.40134         7.73004
     2002.47502        10.51449         7.53878
     2002.47776        13.10064         7.55595
     2002.48050        18.10978         7.70184
     2002.48324        14.34193         8.27684
     2002.48597        31.55608         8.55638
     2002.48871         8.86822         8.26949
     2002.49145        10.59037         7.68958
     2002.49419        20.25452         7.87716
     2002.49692         4.94866         8.59193
     2002.49966        12.90181         8.78932
     2002.50241        36.36397         9.48202
     2002.50510        10.93700         8.90211
     2002.50788        11.89925         8.77338
     2002.51061        11.25139         8.50366
     2002.51335        18.42553         9.13138
     2002.51611        20.06474         9.10318
     2002.51884        11.23786         9.07743
     2002.52157        13.65198         7.63686
     2002.52430        11.90213         7.53756
     2002.52704        11.10627         7.82567
     2002.52978        10.31942         7.68345
     2002.53252        24.76357         7.96789
     2002.53525        15.73171         8.07455
     2002.53799        13.79286         7.61847
     2002.54073        22.12901         7.91885
     2002.54347        26.49815         8.07823
     2002.54621        18.35730         7.94705
     2002.54854        -6.76674        14.55773
     2002.55101        29.27758        37.02696
     2002.55471        17.90061         8.66059
     2002.55716        12.86988         7.86245
     2002.55990        16.47203         7.92866
     2002.56263        26.78818         7.89187
     2002.56537        13.12532         8.00589
     2002.56811        15.13747         7.65035
     2002.57085        19.60362         7.96544
     2002.57358         2.04576         7.88820
     2002.57632         6.43291         7.74966
     2002.57906        10.09206         7.66384
     2002.58180        15.41820         7.65525
     2002.58454        11.46635         7.84896
     2002.58727        18.66550         7.73127
     2002.59001         8.65164         7.89555
     2002.59275        12.96979         7.71042
     2002.59549        13.24993         7.59027
     2002.59823         2.21808         7.90414
     2002.60096        14.40523         7.57066
     2002.60370         8.83537         7.85264
     2002.60644         5.41652         7.85755
     2002.60918        23.12267         7.78031
     2002.61191        12.21481         7.82199
     2002.61465        11.01896         7.92007
     2002.61739        20.87711         8.01693
     2002.62013         5.67025         7.98383
     2002.62287        12.67341         7.89187
     2002.62560        18.43355         8.15669
     2002.62834         8.97569         8.21064
     2002.63108        11.28784         8.13340
     2002.63382        17.72099         7.94827
     2002.63656        12.58513         7.99854
     2002.63929        11.34028         7.95072
     2002.64203        13.53542         7.91640
     2002.64477         8.10257         7.92253
     2002.64751         6.53172         8.33447
     2002.65024         1.69186         8.25110
     2002.65298         7.25501         7.82077
     2002.65572         8.73016         7.91762
     2002.65846        10.09130         7.77786
     2002.66120        10.77045         8.21800
     2002.66393         1.15160         8.40925
     2002.66667        -0.42326         7.88574
     2002.66941        15.78789         7.90291
     2002.67215        30.21404         8.79422
     2002.67488        23.40218         8.10643
     2002.67762        17.63931         7.90781
     2002.68036        12.86748         7.93111
     2002.68310         8.00462         8.28910
     2002.68584        14.88177         8.16282
     2002.68857         5.92191         8.42642
     2002.69131        15.25706         7.87348
     2002.69405        16.71321         7.68345
     2002.69679        21.71535         7.98260
     2002.69953         8.27550         8.00589
     2002.70226        17.69365         7.79134
     2002.70500        16.20279         8.35286
     2002.70774        22.40194         8.17631
     2002.71048        20.84909         7.73862
     2002.71321        14.44523         8.02183
     2002.71595        15.14538         7.84283
     2002.71869        16.52153         8.54534
     2002.72143        15.01367         8.38841
     2002.72417        13.28782         7.79502
     2002.72690         9.57597         7.68100
     2002.72964        17.10511         8.25355
     2002.73238         9.65226         8.04758
     2002.73511        10.52639         8.26213
     2002.73786         7.31357         8.54902
     2002.74059        19.32470         7.96666
     2002.74333        10.76184         8.73783
     2002.74607        10.28599         8.42764
     2002.74881        12.44214         8.65691
     2002.75159        11.96143         8.87024
     2002.75428        19.88343         8.90334
     2002.75702        11.73858         8.62136
     2002.75974        13.61567         8.73415
     2002.76247         9.39578         8.84204
     2002.76523        17.29302         8.76235
     2002.76797        22.79016         8.93154
     2002.77070         5.47629         8.78196
     2002.77345        12.75346         9.07621
     2002.77619        11.90060         9.18410
     2002.77892        -0.76427         9.25521
     2002.78166        10.86888         8.47791
     2002.78440        11.11904         9.04433
     2002.78714        11.21319         9.36310
     2002.78987         9.40732         8.73047
     2002.79261        18.64648         8.74273
     2002.79535        25.21663         8.36880
     2002.79809        21.92477         8.43868
     2002.80083        23.74292         8.79668
     2002.80356        11.00407         8.83468
     2002.80630        14.88921         8.51469
     2002.80904        25.04236         8.55147
     2002.81144        33.54750        10.35740
     2002.81451        20.52862         8.03041
     2002.81725        15.14478         7.99731
     2002.81964        19.20390        10.24215
     2002.82238         0.33705        10.22499
     2002.82646        10.93019        14.58348
     2002.82820        18.34936         7.86245
     2002.83031         8.79064        10.73256
     2002.83327         9.24746         9.74684
     2002.83641        17.81880         8.00957
     2002.83920        16.74511         7.98628
     2002.84131        19.24239        10.19801
     2002.84468        19.43240         7.89801
     2002.84736        21.66538         7.60744
     2002.85010        23.71753         7.58660
     2002.85197        40.71009        13.39302
     2002.88126        11.59326        14.13598
     2002.88295        -3.43271         7.40515
     2002.88569        15.07643         7.42599
     2002.88843        21.52458         7.61112
     2002.89117        14.64473         7.48361
     2002.89390        16.08087         7.35856
     2002.89670        15.87619         7.41495
     2002.89938        15.90416         7.42721
     2002.90212         7.43431         7.56330
     2002.90485        14.18246         7.38430
     2002.90759        13.17360         7.84038
     2002.91033        16.83575         7.39656
     2002.91307        14.05190         7.35733
     2002.91586        19.95521         7.45786
     2002.91854        10.77419         7.63196
     2002.92056        17.20320        11.35905
     2002.92402        17.02648         7.83303
     2002.92676         4.10063         7.60744
     2002.92950        -0.91122         8.27807
     2002.93223       -13.13708         7.71042
     2002.93503       -21.11976         8.12237
     2002.93771       -23.23978         8.38351
     2002.94318        19.25251         7.72881
     2002.94592        28.56565         7.75456
     2002.94866        25.63180         7.58292
     2002.95140        21.56995         7.83425
     2002.95419        18.77426         7.85142
     2002.95687        26.13224         8.32221
     2002.95961        15.86239         7.63686
     2002.96235        13.15153         7.68223
     2002.96509         3.96768         8.25355
     2002.96783         9.89883         7.95808
     2002.97056         5.84397         7.81341
     2002.97336        19.03629         7.61970
     2002.97604         3.72727         7.54736
     2002.97878        14.47641         7.52530
     2002.98151        16.24256         7.71533
     2002.98425        16.58671         7.61112
     2002.98699        26.21485         8.17386
     2002.98973        15.02400         7.52652
     2002.99252        19.13731         7.64790
     2002.99520        13.29729         7.48974
     2002.99794        20.86944         7.51426
     2003.00342         4.59473         7.88574
     2003.00616         5.54688         7.69816
     2003.00889        10.67602         7.64912
     2003.01169         2.86034         8.03409
     2003.01437         4.06732         7.63686
     2003.01688         4.29178         8.60910
     2003.01984        14.60261         7.28867
     2003.02258        12.82276         7.42967
     2003.02532         9.04590         7.44806
     2003.02806         6.10205         7.36714
     2003.03085        -6.91964         7.68468
     2003.03353        -2.94866         7.38430
     2003.03627         5.66049         8.51592
     2003.03901         1.81563         7.42476
     2003.04175         0.67378         7.47258
     2003.04449        -2.42107         7.26538
     2003.04722        11.63607         7.32423
     2003.05002         6.82439         7.67242
     2003.05270        12.72937         7.63809
     2003.05544         6.97551         7.65893
     2003.05817        -4.48134         7.66261
     2003.06091        -5.28219         7.90781
     2003.06365        14.76495         7.44560
     2003.06639         2.70210         7.49465
     2003.06918        12.44642         7.87226
     2003.07136         8.42991         9.43298
     2003.07489         5.16740         8.84449
     2003.07734        11.45669         7.48361
     2003.08008         4.81583         7.46032
     2003.08282         9.13498        11.79184
     2003.08555         9.57112         7.73372
     2003.08805         5.50255         7.92498
     2003.09206        23.95147        39.65309
     2003.09389        12.71992         8.21064
     2003.09638        15.37134         7.68836
     2003.10324        40.08077        78.51539
     2003.10472         4.16315         7.34385
     2003.10746         8.69430         7.63932
     2003.11019        13.03444         7.72759
     2003.11293         1.02659         7.66874
     2003.11567        10.89674         7.61602
     2003.11841         9.05388         7.54123
     2003.12115         5.60803         7.38553
     2003.12388         5.62217         7.36469
     2003.12662        11.04532         7.34507
     2003.12936         4.28147         7.73985
     2003.13210         2.32161         7.45296
     2003.13483        10.37276         7.59150
     2003.13757        13.62591         7.33036
     2003.14020        31.00271         7.62706
     2003.14305        15.00420         7.53878
     2003.14579         9.68835         7.31442
     2003.14852         7.29149         7.23596
     2003.15126         5.06364         7.30952
     2003.15400        13.30979         7.18691
     2003.15674         8.94593         7.61970
     2003.15948        14.59108         7.18078
     2003.16221        11.14623         7.51671
     2003.16495         9.47637         7.66016
     2003.16769         9.13552         7.40515
     2003.17043        21.85766         7.60621
     2003.17316        21.21681         7.39656
     2003.17590        13.48596         7.29480
     2003.17864         2.75210         9.72968
     2003.18138        10.41525         7.90046
     2003.18321        28.61071        13.83193
     2003.18692         5.78673         7.69816
     2003.18959         8.15669         7.31565
     2003.19233        10.26284         7.53388
     2003.19507        19.12898         7.61357
     2003.19780        10.80713         7.73494
     2003.20054        14.76428         7.66874
     2003.20328         8.92542         7.60253
     2003.20602         1.88157         7.54736
     2003.20876         6.46072         7.48239
     2003.21149         3.30586         7.34385
     2003.21423         5.49801         7.65525
     2003.21697        16.56515         7.59273
     2003.21971         0.60130         7.71410
     2003.22245         0.55945         7.37940
     2003.22518         8.41359         7.28745
     2003.22792        11.70574         7.87961
     2003.23066        -3.01511         7.36101
     2003.23340         0.64703         7.70797
     2003.23613        -1.91882         7.42231
     2003.23887        -1.25467         7.54614
     2003.24161        -0.01053         7.26661
     2003.24435         1.05962         7.43089
     2003.24709        14.62577         7.64177
     2003.24982        12.50191         7.29848
     2003.25256        14.54106         7.63319
     2003.25530         3.26421         7.49219
     2003.25804         0.94635         7.24699
     2003.26078         7.44650         7.30584
     2003.26351         4.82064         7.33526
     2003.26625         4.83479         7.80483
     2003.26899        12.08494         7.47258
     2003.27173         6.46808         7.74107
     2003.27446         8.17423         7.35365
     2003.27720         3.68138         7.28867
     2003.27994        12.59052         7.22002
     2003.28268         9.80967         7.10722
     2003.28542         8.69682         7.08516
     2003.28815        13.43796         7.12071
     2003.29089         6.43511         7.36714
     2003.29363        15.56926         7.26906
     2003.29637         9.57640         7.07412
     2003.29911         9.48555         7.12561
     2003.30184         8.03470         7.10477
     2003.30458        12.03884         7.36224
     2003.30732        16.25999         7.33158
     2003.30989        13.43963         7.85632
     2003.31274         8.96411         7.20285
     2003.31553         3.04343         7.35488
     2003.31696         6.14167       196.74271
     2003.32107        13.06389         8.13463
     2003.32375        24.05887         7.12684
     2003.32648         9.37501         7.12194
     2003.32922         4.29216         7.33649
     2003.33196         7.61531         7.37940
     2003.33470        11.03245         7.13542
     2003.33744         6.11560         7.03244
     2003.34017         4.81575         7.06186
     2003.34291        13.96089         6.98340
     2003.34565         8.60404         7.11458
     2003.34839        17.36019         7.28254
     2003.35112         9.58333         7.19672
     2003.35386        17.85248         7.00056
     2003.35660        14.48462         6.99811
     2003.35934        13.52677         6.98953
     2003.36208        16.77292         7.01650
     2003.36481         9.32006         7.13787
     2003.36755         4.54021         7.28867
     2003.37029        18.58536         7.16975
     2003.37303        -1.59150         7.09129
     2003.37577         4.54465         7.01405
     2003.37850         4.24480         6.98094
     2003.38124        10.34794         7.07535
     2003.38398        14.67409         6.98340
     2003.38672        16.56424         6.99198
     2003.38945        16.14038         6.98830
     2003.39219        13.23153         7.17711
     2003.39493        21.49268         7.22002
     2003.39767        14.38082         7.10600
     2003.40041         7.10997         7.47012
     2003.40314        23.76511         7.72023
     2003.40588        18.78526         7.41618
     2003.40862        20.88941         7.67487
     2003.41136        15.37355         7.39902
     2003.41410        11.38070         7.19304
     2003.41683        17.00885         7.49465
     2003.41957        25.17099         7.40024
     2003.42231        13.79214         7.20531
     2003.42505        17.61029         7.41741
     2003.42778        17.53743         7.27028
     2003.43052        18.66758         7.22615
     2003.43326        19.19773         7.39779
     2003.43600        19.81287         7.16485
     2003.43874        20.85702         7.34630
     2003.44147        17.18117         7.34630
     2003.44421        13.60231         7.24331
     2003.44695        22.27546         7.34752
     2003.44969        10.74260         7.18201
     2003.45243         8.92275         7.59395
     2003.45516        11.38890         7.17465
     2003.45790         5.73304         7.19182
     2003.46064        13.89519         7.22492
     2003.46338        12.70134         7.31810
     2003.46611        12.28848         7.23841
     2003.46885         7.33963         7.23718
     2003.47159         4.41078         7.16239
     2003.47433        13.40792         7.16239
     2003.47707        11.81307         7.28132
     2003.47980        20.33122         7.41495
     2003.48254        12.65836         7.41128
     2003.48528        16.04551         7.56453
     2003.48802        15.47666         7.35365
     2003.49076        19.78780         7.50813
     2003.49349        13.05395         7.71778
     2003.49623         4.78209         7.51181
     2003.49897        10.35924         7.27396
     2003.50171         8.99839         7.46890
     2003.50444        10.37453         7.66629
     2003.50718        16.12168         7.50445
     2003.50992        12.66883         7.34017
     2003.51266        16.21697         7.64912
     2003.51540        22.08612         7.43947
     2003.51813        18.87127         7.37940
     2003.52037        18.16993         9.46853
     2003.52914        23.60602         7.68223
     2003.53182        12.93600         7.26906
     2003.53456        10.34715         9.84124
     2003.53730        19.05629         7.52775
     2003.54004        21.77544         7.54491
     2003.54277        18.10558         7.86245
     2003.54551         5.82673         7.53878
     2003.54825        16.97388         7.47503
     2003.55099        15.59102         7.48361
     2003.55373        -4.08083         7.69203
     2003.55646        36.63332         7.56821
     2003.55920        10.08746         7.41005
     2003.56194        19.04961         7.42967
     2003.56468        16.86276         7.44683
     2003.56741        10.64790         7.24822
     2003.57015        14.77605         7.37817
     2003.57289        17.33520         7.52775
     2003.57563        16.43134         7.44193
     2003.57837        19.55649         7.33649
     2003.58110         8.33764         7.47135
     2003.58384        18.56178         7.39043
     2003.58658        22.23693         7.48606
     2003.58932        16.11507         7.39902
     2003.59206        24.98722         7.51304
     2003.59479        12.60637         7.46399
     2003.59753        16.69751         7.52775
     2003.60027        25.58266         7.53020
     2003.60301         9.54881         7.26048
     2003.60574        22.10495         7.34385
     2003.60848        12.30410         7.41128
     2003.61122         8.39825         7.27764
     2003.61396        12.25439         7.28009
     2003.61670        13.06654         7.33158
     2003.61943        16.05769         7.29113
     2003.62217        20.27683         7.38063
     2003.62491        13.73098         7.22737
     2003.62765        13.20413         7.31319
     2003.63039        10.13027         7.41250
     2003.63312        17.36542         7.19304
     2003.63586        18.24956         7.23228
     2003.63860        29.70171         7.36101
     2003.64134        26.91186         7.27764
     2003.64407        26.00300         7.34507
     2003.64681        16.62915         7.17220
     2003.64955        12.92330         7.35978
     2003.65229        17.78944         7.25557
     2003.65503        19.37159         7.36224
     2003.65776         5.63974         7.13665
     2003.66050        12.92888         7.22492
     2003.66324         7.90703         7.23473
     2003.66598        17.38318         7.42721
     2003.66872        15.17132         7.16239
     2003.67145        19.42347         7.15381
     2003.67419        18.47462         7.38921
     2003.67693        22.79776         7.38921
     2003.67967        17.43491         7.42967
     2003.68240        15.08405         7.47012
     2003.68514        20.16720         7.40515
     2003.68788        18.45935         7.25189
     2003.69062        14.79649         7.41618
     2003.69336        12.05564         7.37450
     2003.69609        18.29879         7.33894
     2003.69883        15.77093         7.17956
     2003.70157        15.62008         7.28990
     2003.70431        23.21723         7.64177
     2003.70705        12.99037         7.28622
     2003.70978        14.01452         7.28009
     2003.71252        13.08467         7.30829
     2003.71526        18.87281         7.39166
     2003.71800        12.08996         7.38798
     2003.72073        25.93111         7.22492
     2003.72347        11.31625         7.34998
     2003.72621        20.58340         7.45419
     2003.72895        14.86054         7.44928
     2003.73169        13.74669         7.55349
     2003.73442        18.51384         7.27274
     2003.73716        21.70798         7.32423
     2003.73990        22.37513         7.22860
     2003.74264        23.96728         7.74230
     2003.74538        16.70442         7.42108
     2003.74811        15.01757         7.28254
     2003.75085        18.05172         7.35733
     2003.75359        26.07886         7.30706
     2003.75633        17.95701         7.34139
     2003.75906        17.32616         7.19550
     2003.76180        21.80130         7.44683
     2003.76454        11.42345         7.57434
     2003.76728        31.18160         7.66997
     2003.77002        14.30474         7.29358
     2003.77275        28.44289         7.36101
     2003.77549        15.32103         7.20776
     2003.77823         9.10018         7.38308
     2003.78097        12.58333         7.27028
     2003.78371        23.24347         7.24209
     2003.78644        21.07862         7.34139
     2003.78918        20.06677         7.19059
     2003.79192        11.38191         7.37327
     2003.79466        15.63106         7.37204
     2003.79739        22.33221         7.31197
     2003.80013         4.78335         7.36591
     2003.80287        20.77150         7.18078
     2003.80561        22.89965         7.71901
     2003.80835         7.96679         7.45909
     2003.81108        15.42294         7.25925
     2003.81382         9.61609         7.02140
     2003.81656         8.03723         6.99320
     2003.81930        27.77838         7.37450
     2003.82203         5.27752         7.53265
     2003.82477        13.62667         8.27194
     2003.82751        14.25182         7.99976
     2003.83025        11.78996         7.10722
     2003.83299        12.82611         7.01159
     2003.83572        14.96926         7.07780
     2003.83846        18.56440         7.00792
     2003.84120        14.25655         7.08516
     2003.84394         9.86170         6.97114
     2003.84668         9.51084         6.95029
     2003.84941        15.12399         7.12194
     2003.85215        15.77314         6.95765
     2003.85489        25.20428         6.95642
     2003.85763        16.72743         7.29726
     2003.86036        22.30557         7.37940
     2003.86310        18.52472         7.02753
     2003.86584        17.46987         7.13542
     2003.86858        21.07801         7.26661
     2003.87132        22.24316         7.22737
     2003.87405        19.85431         7.19059
     2003.87679        24.02245         7.68468
     2003.87953        22.31360         7.40269
     2003.88227        19.24275         7.21511
     2003.88501         2.37889         8.18489
     2003.88774         7.62504         7.47503
     2003.89048        10.67719         7.22737
     2003.89322        12.47033         7.09006
     2003.89596         3.49348         7.15259
     2003.89869         0.97663         7.37450
     2003.90143        20.14177         6.98462
     2003.90417         8.90192         7.07412
     2003.90691        12.86106         7.00301
     2003.90965        16.74121         7.12439
     2003.91238        21.99536         6.99320
     2003.91512        16.19450         7.07044
     2003.91786        11.51165         7.60744
     2003.92060        18.80380         7.56821
     2003.92391         5.28864        10.15510
     2003.92607        25.67709         7.43089
     2003.92881        14.80024         7.25802
     2003.93155        17.45038         7.12929
     2003.93429        17.06653         7.38430
     2003.93702         9.86368         7.17588
     2003.93976         8.76682         7.22247
     2003.94250        -7.93703         7.24822
     2003.94524        -4.31988         7.35733
     2003.94798        27.18326         7.66138
     2003.95071        21.58141         7.27519
     2003.95345        24.10155         7.27274
     2003.95619         2.40070         7.39534
     2003.95893         6.13285         7.28009
     2003.96167        14.12599         7.39289
     2003.96440         9.09614         7.59640
     2003.96714        15.76429         7.25312
     2003.96988        16.74343         7.49832
     2003.97262        12.25258         7.23473
     2003.97535         6.27773         7.23473
     2003.97809         7.00387         7.57801
     2003.98083        13.36102         7.17833
     2003.98357        10.11617         7.21879
     2003.98631         3.35431         7.10109
     2003.98904         4.03146         7.11703
     2003.99178         0.76961         7.15504
     2003.99452        -2.37725         7.06554
     2003.99726         0.32590         7.05328
     2004.00273       -13.61381         7.30706
     2004.00547       -10.36866         7.24209
     2004.00821       -14.18752         7.35611
     2004.01095       -24.84137         7.46645
     2004.01368       -20.79522         7.44315
     2004.02464       -21.48164         7.32178
     2004.02737        10.07751         7.53143
     2004.03011        -2.17934         7.24454
     2004.03285         0.80880         7.08270
     2004.03559         1.47995         7.05941
     2004.03833         6.26710         7.27887
     2004.04106        -4.84776         7.38308
     2004.04380         3.06139         7.28009
     2004.04654         9.28853         7.14646
     2004.04928        11.58368         7.17588
     2004.05201        -9.63017         7.11703
     2004.05475        -7.28003         7.21757
     2004.05749        -7.93488         7.20653
     2004.06023        -3.19973         7.28254
     2004.06297         3.73541         7.40392
     2004.06570         4.51556         7.01405
     2004.06844         7.64271         7.04347
     2004.07118         1.20385         7.00546
     2004.07392        -7.64900         7.31565
     2004.07666         8.45815         7.26415
     2004.07939         9.79929         7.32055
     2004.08213         8.80944         7.06186
     2004.08487         3.22159         7.11581
     2004.08761        -4.72727         7.05696
     2004.09034        -2.97212         7.28622
     2004.09308        11.10302         8.29523
     2004.09582         3.60217         7.08516
     2004.09856         1.41732         7.17711
     2004.10130         0.46646         7.07412
     2004.10403         3.63461         7.05083
     2004.10677         1.24676         7.03121
     2004.10934         1.55839         7.50078
     2004.11225         2.02405         6.92823
     2004.11498         0.77220         7.13542
     2004.11772         9.75834         7.20285
     2004.12046         5.55949         6.94907
     2004.12320         7.83364         7.50568
     2004.12594        11.03278         7.37940
     2004.12867        14.54093         7.21879
     2004.13141        -3.51092         7.02508
     2004.13415         4.84122         7.16975
     2004.13689         3.73937         7.04470
     2004.13963         5.31451         7.11581
     2004.14236         1.63566         7.15381
     2004.14510         9.67581         7.19795
     2004.14784         7.66195         7.16117
     2004.15058        16.45210         7.23963
     2004.15331         9.68825         7.25067
     2004.15605         9.70739         7.19059
     2004.15879         2.48454         7.18691
     2004.16153         8.63369         7.21757
     2004.16427         8.32883         7.23473
     2004.16700         1.88698         7.22124
     2004.16974         2.72113         7.59763
     2004.17248         7.11827         7.55472
     2004.17521        19.06939         7.28500
     2004.17796         8.18757         7.28622
     2004.18069         2.51671         7.37940
     2004.18343        -2.59914         7.49710
     2004.18617        -0.83100         7.52530
     2004.18891         3.17915         7.20898
     2004.19164         4.08730         7.14768
     2004.19438         6.34644         7.34262
     2004.19712         2.19359         7.20040
     2004.19986        -4.24426         7.20163
     2004.20260         3.38388         7.38921
     2004.20533        -0.24897         7.22124
     2004.20807         1.42418         7.59640
     2004.21081        17.60532         7.57311
     2004.21355         6.95847         7.62583
     2004.21629        -0.95638         7.37940
     2004.21902         1.70276         7.46767
     2004.22176         3.82491         7.15749
     2004.22450        15.04306         7.61725
     2004.22724        13.49520         7.37695
     2004.22997         9.82835         7.15136
     2004.23271        10.37449         7.26783
     2004.23545        13.06064         7.27764
     2004.23819        -1.05521         7.16975
     2004.24093         1.47693         7.36959
     2004.24366         4.45208         7.49219
     2004.24640         9.18523         7.15381
     2004.24914         5.54637         7.28990
     2004.25188         3.31352         7.03121
     2004.25462         3.92867         7.21511
     2004.25735        10.86481         7.21879
     2004.26009         4.42296         7.15381
     2004.26283         4.76011         7.01772
     2004.26557         1.54525         7.34630
     2004.26830        -0.84460         7.11335
     2004.27104        12.42555         7.18446
     2004.27378         1.57069         7.04224
     2004.27652         8.46084         7.10600
     2004.27926         4.68398         7.08516
     2004.28199        -1.79487         7.43334
     2004.28473         8.91228         7.51549
     2004.28747        10.75142         7.10477
     2004.29021        10.99857         7.11948
     2004.29295         7.86572         7.05941
     2004.29568        12.16586         7.26293
     2004.29842        12.07901         7.15381
     2004.30116        11.39616         7.09496
     2004.30390        11.22630         7.05450
     2004.30663        12.72545         7.09006
     2004.30937        12.28460         7.20653
     2004.31211        -0.77126         7.00546
     2004.31485         4.88789         7.02631
     2004.31759         6.83804         7.13910
     2004.32032        19.41918         7.20776
     2004.32306         5.24433         7.19059
     2004.32580         5.42947         7.05941
     2004.32859         3.16679         7.19672
     2004.33128         6.70877         7.03857
     2004.33401        21.97891         7.49219
     2004.33675        16.58906         7.37572
     2004.33949        12.20521         7.59640
     2004.34223        13.76435         7.36959
     2004.34496        14.17050         7.25189
     2004.34770        21.84865         7.27274
     2004.35044        18.68679         7.20040
     2004.35318         7.56794         7.20531
     2004.35592         8.92309         6.97972
     2004.35865        14.78623         7.05205
     2004.36139        12.48638         7.08761
     2004.36413        10.95353         7.09987
     2004.36687         7.60067         7.02385
     2004.36961        11.78882         7.07780
     2004.37234        12.47596         7.02631
     2004.37508        12.51211         7.00424
     2004.37782        10.85326         7.00546
     2004.38056        14.93440         7.24576
     2004.38329        14.05555         7.54001
     2004.38603         5.88770         7.32913
     2004.38877        12.32884         7.05450
     2004.39151        11.44099         7.05328
     2004.39425        15.64414         7.06554
     2004.39698        10.69128         7.34998
     2004.39972        15.22743         7.17711
     2004.40246        12.66458         7.41005
     2004.40520         6.42572         7.36469
     2004.40794        14.39887         7.09864
     2004.41067        13.28602         7.12807
     2004.41341         7.97416         7.19059
     2004.41615        15.70831         7.06554
     2004.41889        13.45045         7.03979
     2004.42162        10.21260         7.07412
     2004.42436         5.82975         7.13665
     2004.42710         9.40589         7.37327
     2004.42984         8.13604         7.29603
     2004.43258        12.71019         7.12929
     2004.43531        10.93233         7.13910
     2004.43805        16.42348         7.12316
     2004.44079         5.37463         7.17220
     2004.44353         6.77077         7.19550
     2004.44626         5.18992         7.15749
     2004.44900        11.10707         7.21634
     2004.45174         6.12521         7.36101
     2004.45448        -0.40364         7.20040
     2004.45722        -0.66849         7.32913
     2004.45995         0.02265         7.31197
     2004.46269        -4.58520         7.21879
     2004.46543         3.00094         7.18446
     2004.46817         7.81309         7.22002
     2004.47091         7.20124         7.13665
     2004.47364         9.11338         7.18937
     2004.47638         4.81953         7.24331
     2004.47912        10.68168         7.20531
     2004.48186         2.33482         7.46277
     2004.48459         5.61997         7.35978
     2004.48733         8.33712         7.31319
     2004.49007        11.48726         7.34630
     2004.49281         7.72641         7.47871
     2004.49555         7.18156         7.40637
     2004.49828         8.45170         7.14400
     2004.50102         0.86185         7.28990
     2004.50376        10.87400         7.28377
     2004.50650         5.07814         7.19182
     2004.50924        10.09429         7.17711
     2004.51197        12.72343         7.52162
     2004.51471         1.96058         7.88574
     2004.51745        11.05873         7.08761
     2004.52019         7.82387         7.31565
     2004.52292        18.73202         7.24699
     2004.52566        11.39217         7.08393
     2004.52840        12.94231         7.22002
     2004.53114        14.07346         7.65525
     2004.53388        14.64761         7.31565
     2004.53661        16.87875         7.23473
     2004.53935        19.25690         7.56821
     2004.54209        18.74805         7.33404
     2004.54483        14.04419         7.23473
     2004.54757        13.68134         7.58660
     2004.55030        23.64849         7.44438
     2004.55304        15.72063         7.58905
     2004.55578         9.62678         7.07903
     2004.55852        13.81892         7.20285
     2004.56125         9.09207         7.10722
     2004.56399        14.93422         7.31197
     2004.56673        18.50636         7.15504
     2004.56947        14.63751         7.27274
     2004.57221         8.53666         7.17343
     2004.57494        12.47380         7.26538
     2004.57768        15.23895         7.17711
     2004.58042        18.65910         7.12561
     2004.58316         9.93324         7.20408
     2004.58590        15.37539         7.20653
     2004.58863        22.63654         7.51426
     2004.59137        16.73668         7.36469
     2004.59411        18.59483         7.51058
     2004.59685         8.82197         7.30829
     2004.59958        14.69012         7.21879
     2004.60232        12.17427         7.11458
     2004.60506        13.67741         7.18691
     2004.60780        10.63056         7.23228
     2004.61054        14.03471         7.12071
     2004.61327        15.20085         7.18691
     2004.61601        11.50000         7.23350
     2004.61875        15.92115         7.15749
     2004.62149        11.67429         7.14646
     2004.62423        12.95344         7.38798
     2004.62696        18.04959         7.17833
     2004.62970        10.95173         7.18446
     2004.63244        16.88888         7.10477
     2004.63518        19.00703         7.34507
     2004.63791        15.04717         7.38308
     2004.64065        19.66832         7.37940
     2004.64339        17.73346         7.15749
     2004.64613        17.25361         7.31197
     2004.64887        11.97676         7.32545
     2004.65160        21.12490         7.20163
     2004.65434        12.08705         7.18446
     2004.65708        11.93920         7.32791
     2004.65982        16.50634         7.32423
     2004.66256        12.77449         7.12316
     2004.66529        16.22464         7.12807
     2004.66803        25.63778         7.41618
     2004.67077         4.29593         7.19550
     2004.67351        15.02608         7.16975
     2004.67624        15.62522         7.26661
     2004.67898        14.79937         7.13910
     2004.68172        11.22552         7.65158
     2004.68446        28.54766         7.26048
     2004.68720        16.82981         7.19918
     2004.68993        20.80595         7.25312
     2004.69267         8.29110         7.13174
     2004.69541        13.51925         7.43580
     2004.69815        16.84039         7.21757
     2004.70089        22.09154         7.39656
     2004.70362        11.78069         7.27887
     2004.70636        24.75483         7.40760
     2004.70910        29.91298         7.19550
     2004.71184        19.07413         7.16730
     2004.71457        16.23627         7.01405
     2004.71731        24.95342         7.02998
     2004.72005        19.75257         7.05205
     2004.72279        12.30271         7.15381
     2004.72553        12.40086         7.15259
     2004.72826        17.50301         7.08025
     2004.73100        25.18815         7.12929
     2004.73374        15.24730         7.04592
     2004.73648        13.42144         7.06799
     2004.73921        20.02559         7.07903
     2004.74195        20.42074         7.00056
     2004.74469        20.61388         7.09129
     2004.74743        14.64003         7.02876
     2004.75017        13.09618         7.00792
     2004.75290        18.96232         6.98217
     2004.75564        15.82347         7.03489
     2004.75838        15.87662         6.99443
     2004.76112        19.54376         7.08761
     2004.76386         8.99991         7.19427
     2004.76659        18.31906         7.12684
     2004.76933        18.11620         7.53143
     2004.77207        16.49535         7.29358
     2004.77481        24.82750         7.17588
     2004.77754        18.34464         7.34017
     2004.78028        17.93279         7.23228
     2004.78302        15.06993         7.22370
     2004.78576        18.22608         7.08516
     2004.78850        21.36423         7.22124
     2004.79123        26.16537         7.05083
     2004.79397        25.58952         7.02018
     2004.79671        23.51067         7.06186
     2004.79945        22.29981         7.13297
     2004.80219        24.75696         7.04470
     2004.80492        10.32711         7.11703
     2004.80766        12.12125         7.24944
     2004.81040        14.55240         7.02998
     2004.81314        16.44755         7.00546
     2004.81587        24.37169         6.99443
     2004.81861        16.82884         7.20163
     2004.82135        20.41499         7.16975
     2004.82409        26.67713         7.12439
     2004.82683        16.05228         6.98953
     2004.82956        19.26142         7.41128
     2004.83230        16.81057         7.00179
     2004.83504        11.21472         7.27764
     2004.83778        16.72986         7.07044
     2004.84052        16.80401         7.17220
     2004.84325        19.70916         6.95152
     2004.84599        20.87330         6.98707
     2004.84873        21.13645         7.01895
     2004.85147        17.72860         7.09742
     2004.85420        28.14574         8.37615
     2004.85694        16.61289         7.18078
     2004.85968        18.29004         7.11581
     2004.86242        12.03318         7.09251
     2004.86516        19.21333         6.94171
     2004.86789         9.56148         6.96378
     2004.87063         4.05262         7.01282
     2004.87337        16.63377         6.97604
     2004.87611        14.86291         7.07044
     2004.87885         8.92006         6.82769
     2004.88158        12.55221         7.22124
     2004.88432         8.74835         7.21879
     2004.88706        14.73550         6.87305
     2004.88980        14.91665         6.90861
     2004.89253        15.50479         6.89390
     2004.89527        15.59394         6.97727
     2004.89801        17.50009         7.32300
     2004.90075        20.99023         7.29726
     2004.90349        11.65138         7.02876
     2004.90622        12.91553         6.86325
     2004.90896        11.97167         6.88164
     2004.91170        10.63882         6.87060
     2004.91444        12.88697         6.94539
     2004.91718         7.52411         7.02140
     2004.91991        11.53126         7.02998
     2004.92265         5.51540         6.96623
     2004.92539        23.45555         6.87918
     2004.92813        15.21870         6.89267
     2004.93086        23.43184         6.96623
     2004.93360         3.63599         7.40392
     2004.93634        22.03214         7.03611
     2004.93908        20.22228         7.11213
     2004.94182        16.21443         7.52284
     2004.94455         6.66758         7.20408
     2004.94729         7.69572         6.96501
     2004.95003        11.93587         7.04592
     2004.95277        16.21402         7.44193
     2004.95551         2.11616         6.97359
     2004.95824         7.56931         7.11948
     2004.96098         3.64846         6.86938
     2004.96372         2.34360         6.78601
     2004.96646         4.40075         6.89635
     2004.96919         7.58389         6.86815
     2004.97193         8.14404         7.08270
     2004.97467         4.76719         7.16239
     2004.97741         1.19333         6.78723
     2004.98015         2.91148         6.72348
     2004.98288         7.27563         6.92210
     2004.98562        15.34077         7.06431
     2004.98836        13.07192         6.99320
     2004.99110         5.45107         7.13052
     2004.99384         6.78721         7.08638
     2004.99657       -13.77564         7.19918
     2004.99931       -12.11949         7.33404
     2005.00479        -9.12320         7.24576
     2005.00752       -10.88105         7.24086
     2005.01026       -11.20091         7.35243
     2005.01300        -9.32576         7.34507
     2005.01574        -0.54062         7.25189
     2005.01848        30.05453         7.13542
     2005.02121        15.20968         7.00179
     2005.02395        10.39082         6.96501
     2005.02669        -3.85503         7.04347
     2005.02943         8.50912         7.08270
     2005.03216        -5.06474         7.19182
     2005.03490         5.06241         7.21511
     2005.03764        -3.01044         7.02876
     2005.04038        -0.48030         7.01405
     2005.04312         1.56285         7.05083
     2005.04585        -1.95900         6.97849
     2005.04859         8.48214         7.52530
     2005.05133        -4.81671         7.32055
     2005.05407         1.53044         7.27396
     2005.05681         5.53358         7.22247
     2005.05954         3.33073         7.12439
     2005.06228         3.92187         7.22983
     2005.06502        -0.34498         7.09251
     2005.06776        -0.49483         7.94950
     2005.07049         6.09431         7.13665
     2005.07323         6.27046         7.18569
     2005.07597         0.20361         7.26048
     2005.07871        -2.40025         6.96868
     2005.08145        -1.17210         6.93313
     2005.08418        -1.96695         6.90370
     2005.08692        -4.53181         6.81666
     2005.08966        -5.35766         6.89512
     2005.09240        -1.28551         7.04347
     2005.09514        -1.35937         7.04470
     2005.09787         1.22978         6.85099
     2005.10061         5.26293         6.81543
     2005.10335         5.36507         6.93558
     2005.10609        -1.50978         6.93803
     2005.10882         4.42136         7.03857
     2005.11156        -2.51349         6.80440
     2005.11430         0.11366         6.83995
     2005.11704         8.23780         6.84976
     2005.11978         4.60495         6.83137
     2005.12251         0.65410         6.80195
     2005.12525        -0.15076         6.86815
     2005.12799        -3.27561         6.81053
     2005.13073         1.65454         6.90983
     2005.13347         3.30968         6.89267
     2005.13620         2.80083         6.82647
     2005.13894         7.03998         6.99320
     2005.14168        -2.10388         6.98217
     2005.14442        -1.10873         6.77497
     2005.14715        -1.67958         7.01527
     2005.14989         0.60956         6.93803
     2005.15263         0.16271         6.93190
     2005.15537         4.67485         6.99933
     2005.15811         2.82700         7.05573
     2005.16084         7.96915         7.00424
     2005.16358         4.15729         7.04224
     2005.16632         4.05644         7.18078
     2005.16906         6.20259         6.95642
     2005.17180         6.30773         6.97849
     2005.17453         0.07088         7.03979
     2005.17727         8.17003         7.08025
     2005.18001         4.66517         7.16485
     2005.18275         0.63232         6.96010
     2005.18548         2.95147         7.14891
     2005.18822         4.78461         7.10355
     2005.19096         3.98876         6.97114
     2005.19370         4.83891         7.15013
     2005.19644         2.99105         7.00179
     2005.19917         4.05420         7.00424
     2005.20191         9.86434         7.23841
     2005.20465        10.31549         7.15136
     2005.20739        16.91964         7.15136
     2005.21013         3.01178         6.90125
     2005.21286         6.90093         7.02998
     2005.21560         9.12208         7.09864
     2005.21834         8.24322         7.10232
     2005.22108         7.04637         6.96746
     2005.22381         8.84252         7.04592
     2005.22655         7.75266         6.97359
     2005.22929         6.22081         6.95642
     2005.23116         3.37338        11.49637
     2005.24024        30.36340         7.36591
     2005.24298         5.46454         7.07167
     2005.24572         3.26669         7.19918
     2005.24846         8.36583         7.07167
     2005.25119         1.60598         7.07903
     2005.25393         8.49413         7.15381
     2005.25667         8.28527         7.52039
     2005.25941         6.55442         7.17588
     2005.26214         0.19057         7.28867
     2005.26488        19.31471         7.19550
     2005.26762        12.89886         7.05328
     2005.27036         8.55901         7.05573
     2005.27310        -1.68185         7.18814
     2005.27583         8.88330         7.05818
     2005.27857         6.68745         7.02018
     2005.28131         8.11059         7.02876
     2005.28405        11.41874         7.40882
     2005.28679        -0.72711         7.12807
     2005.28952         6.60503         7.08761
     2005.29226        12.24618         6.97236
     2005.29500        10.43032         7.06677
     2005.29774        10.55147         7.07780
     2005.30047         8.34662         7.13420
     2005.30321         2.85276         7.36346
     2005.30595        10.53591         6.95888
     2005.30869        12.16306         7.11458
     2005.31143        11.13020         7.01159
     2005.31416         5.07235         7.08638
     2005.31690         9.70750         7.01405
     2005.31964         7.50864         7.06431
     2005.32238         8.03779         7.32545
     2005.32512         9.24694         7.10109
     2005.32785         8.86908         7.10722
     2005.33059        15.98623         7.10600
     2005.33333        12.42237         7.06309
     2005.33607        17.78252         7.31074
     2005.33880        18.13967         7.10722
     2005.34154         8.86681         6.97727
     2005.34428        18.02896         7.11213
     2005.34702         6.24811         6.97972
     2005.34976         8.20625         6.97481
     2005.35249        13.30740         7.01159
     2005.35523         8.18055         7.09251
     2005.35797         6.96369         7.22860
     2005.36071         8.72384         7.22615
     2005.36344         7.93199         7.41495
     2005.36618         9.52213         7.15872
     2005.36892        12.46728         7.47135
     2005.37166        18.58943         6.97359
     2005.37440        22.49557         7.42108
     2005.37713         9.48272         7.22492
     2005.37987        13.21986         7.17098
     2005.38261         8.78001         7.22615
     2005.38535         4.66916         7.44193
     2005.38809        -2.14870         7.09987
     2005.39082         3.95545         7.10845
     2005.39356        -0.16640         7.01282
     2005.39630         0.21274         6.97114
     2005.39904         3.82589         7.03611
     2005.40177         8.29404         7.00792
     2005.40451         8.28518         7.05328
     2005.40725         6.55033         7.15872
     2005.40999         5.88448         7.03366
     2005.41273         3.86462         7.21634
     2005.41546         4.78077         7.11335
     2005.41820         5.45292         6.96501
     2005.42094        -0.22594         7.01282
     2005.42368         4.12321         7.14768
     2005.42642        13.47435         7.19304
     2005.42915        11.31750         7.00179
     2005.43189         7.39265         6.97972
     2005.43463         8.97379         7.01650
     2005.43737         8.46094         7.46645
     2005.44010         5.83909         7.19918
     2005.44284        10.96223         7.21634
     2005.44558         8.19138         7.33281
     2005.44832         9.16853         7.34507
     2005.45106        13.76167         7.25925
     2005.45379        11.47182         7.10600
     2005.45653         8.96897         7.30829
     2005.45927        10.67011         7.21144
     2005.46201         5.16926         6.90003
     2005.46475        10.78741         7.10355
     2005.46748        10.74555         7.14278
     2005.47022         9.49770         7.09619
     2005.47296         4.54384         7.07535
     2005.47570         7.71999         7.14768
     2005.47843         9.95514         7.32913
     2005.48117         8.77528         7.17098
     2005.48391         8.01143         7.15504
     2005.48665         4.16958         7.16362
     2005.48939         9.89172         7.15136
     2005.49212         5.69187         7.85387
     2005.49486         8.67702         7.20408
     2005.49760         7.49516         7.13542
     2005.50034         5.89431         7.18814
     2005.50308         5.77546         7.18201
     2005.50581        12.91260         7.08516
     2005.50855        13.00475         7.20531
     2005.51129         7.37090         7.29603
     2005.51403        -2.60096         7.10722
     2005.51676        14.87919         7.10968
     2005.51950        18.36633         7.17588
     2005.52224        12.04448         7.23718
     2005.52498        15.54563         7.19059
     2005.52772        17.97877         7.16975
     2005.53045        15.11392         7.14400
     2005.53319         7.10507         7.14278
     2005.53593        12.00921         7.22124
     2005.53867        16.51936         7.77540
     2005.54141         6.31651         7.15749
     2005.54414        14.56665         7.12439
     2005.54688        23.71480         7.05205
     2005.54962        14.08595         7.09006
     2005.55236        10.63009         7.17711
     2005.55509        16.70324         7.57801
     2005.55783        11.63039         7.19182
     2005.56057        15.88753         7.24944
     2005.56331        18.25668         7.30093
     2005.56605        13.10982         7.61602
     2005.56878        21.70497         8.42764
     2005.57152        11.40812         7.72391
     2005.57426         6.41026         7.18814
     2005.57700         7.39241         7.00669
     2005.57974        13.72456         7.20408
     2005.58247        15.56670         7.56085
     2005.58521         9.87885         7.45664
     2005.58795        14.12700         7.08638
     2005.59069        11.33614         7.03979
     2005.59342        13.37629         7.13910
     2005.59616        18.35044         7.25802
     2005.59890        16.78658         7.29603
     2005.60164        12.13573         7.13542
     2005.60438        12.83988         7.12929
     2005.60711        24.04202         7.31197
     2005.60985        22.62317         7.37327
     2005.61259        11.31731         7.29113
     2005.61533        11.63546         7.21511
     2005.61807        13.79161         7.05696
     2005.62080        16.13475         7.02263
     2005.62354        15.92890         7.44193
     2005.62628        31.56105         7.55349
     2005.62902        14.86019         7.14523
     2005.63175        17.39934         7.09864
     2005.63449        17.98649         7.17588
     2005.63723        18.40963         7.08761
     2005.63997        26.45278         7.40147
     2005.64271        23.37793         7.18446
     2005.64544        16.71907         7.11213
     2005.64818        14.89622         7.10232
     2005.65092        14.66237         7.10355
     2005.65366        16.53451         7.25189
     2005.65639        13.27766         7.17098
     2005.65913        19.03780         7.28009
     2005.66187        16.81695         7.36591
     2005.66461        11.94610         7.12071
     2005.66735        12.09424         7.15872
     2005.67008        19.77839         7.18814
     2005.67282        28.79354         7.17098
     2005.67556        31.94568         7.17465
     2005.67830        17.36483         7.13910
     2005.68104         7.62798         7.10600
     2005.68377        17.10012         7.10109
     2005.68651        14.59927         7.25435
     2005.68925        20.03142         7.14891
     2005.69199        17.18956         7.12561
     2005.69472        12.95671         7.14033
     2005.69746        15.06086         7.13665
     2005.70020        16.90100         7.26783
     2005.70294        20.46415         7.33894
     2005.70568        19.55029         7.56575
     2005.70841        13.40344         7.48729
     2005.71115        15.78059         7.15626
     2005.71389        14.49173         7.04715
     2005.71663        13.27688         7.43825
     2005.71937        18.68903         7.21389
     2005.72210        15.69017         7.24576
     2005.72484        10.57332         7.32545
     2005.72758        11.68547         7.20531
     2005.73032         9.38161         7.27519
     2005.73305        15.45976         7.16362
     2005.73579        19.91191         7.26783
     2005.73853        17.21605         7.32055
     2005.74127        19.85420         7.35488
     2005.74401        15.78435         7.47012
     2005.74674        13.88849         7.24209
     2005.74948        15.10164         7.14523
     2005.75222        14.52778         7.38430
     2005.75496         6.63193         7.19918
     2005.75770        16.18908         7.23963
     2005.76043        13.85422         6.84486
     2005.76317        15.81037         6.84486
     2005.76591        11.62152         7.40024
     2005.76865        23.20066         7.20408
     2005.77138        11.48381         6.91596
     2005.77412        12.65496         6.90370
     2005.77686        23.47410         6.95888
     2005.77960        16.66025         7.11458
     2005.78234        22.70640         7.29480
     2005.78507        19.20354         7.02876
     2005.78781        20.21369         7.11335
     2005.79055        32.06684         7.14523
     2005.79329        18.70398         7.22860
     2005.79603        21.74413         7.20653
     2005.79876        21.38427         7.27519
     2005.80150        15.86942         7.31810
     2005.80424        20.00457         7.00179
     2005.80698        16.66071         7.00669
     2005.80971        21.51986         6.98217
     2005.81245        19.43101         7.04347
     2005.81519        18.43715         7.13910
     2005.81793        17.80530         7.26906
     2005.82067        22.25045         6.97972
     2005.82340        21.67359         7.16852
     2005.82614        21.22974         7.09006
     2005.82888        21.16689         7.12684
     2005.83162        22.24403         7.25435
     2005.83436         8.66818         7.47012
     2005.83709         0.79933         7.45296
     2005.83983        16.61147         7.25557
     2005.84257        16.53362         7.48484
     2005.84531        23.54076         7.50813
     2005.84804        10.40691         8.19838
     2005.85078        16.58506         7.46399
     2005.85352         1.29120         7.23596
     2005.85626         8.13635         7.22737
     2005.85900        12.17750         7.18937
     2005.86173         9.87064         7.24576
     2005.86447        19.95479         7.23963
     2005.86721        17.58494         7.08393
     2005.86995         8.66508         7.18937
     2005.87269         5.74023         7.04102
     2005.87542         1.78938         7.06186
     2005.87816         4.23152         6.89267
     2005.88090         6.15667         7.01895
     2005.88364         7.27482         6.98462
     2005.88637         9.48696         7.25189
     2005.88911         4.81611         7.41128
     2005.89185         8.87025         7.33772
     2005.89459         6.56440         7.24822
     2005.89733         2.43755         7.28990
     2005.90006       -15.06131         7.76437
     2005.90280         1.61484         7.43580
     2005.90554         5.47099         7.16485
     2005.90828         2.99213         6.91351
     2005.91102        12.93728         6.96746
     2005.91375        -7.49157         7.14155
     2005.91649        -5.46143         7.18691
     2005.92197       -17.56013         7.14646
     2005.92470       -18.86299         6.99198
     2005.92744       -15.07484         7.12929
     2005.93018        -4.26369         7.04960
     2005.93292         3.72945         7.06922
     2005.93566         4.07060         6.91719
     2005.93839         0.68774         7.01650
     2005.94113         3.97489         6.85466
     2005.94387         4.21404         6.94784
     2005.94661         4.68518         6.97114
     2005.94935         1.19833         6.96501
     2005.95208        -4.03852         6.90738
     2005.95482        -4.97138         7.07535
     2005.95756        -7.26423         6.99811
     2005.96030        -4.36608         7.02263
     2005.96303        -7.05194         6.98830
     2005.96577       -11.68379         7.51917
     2005.97695        -3.58053         8.23148
     2005.97946         2.07394         7.19918
     2005.98220         6.17309         7.31319
     2005.98494        12.53723         7.16607
     2005.98767        10.33038         7.23718
     2005.99041         1.97753         7.21879
     2005.99315         6.10767         7.47748
     2005.99589        -2.07318         7.73740
     2005.99863         7.45997         7.61234
     2006.00410         8.26626         7.24209
     2006.00684         6.01941         7.17220
     2006.00958       -13.29745         7.33526
     2006.01232         5.51070         7.25067
     2006.01505        -4.67815         7.25435
     2006.01779         4.27599         7.31074
     2006.02053        11.47814         7.55595
     2006.02327         3.24728         7.39166
     2006.02600         0.75543         7.41373
     2006.02808        11.81661        10.42360
     2006.03154         4.28589         7.23350
     2006.03422        -5.11713         7.62460
     2006.03696         1.62802         7.24822
     2006.03969         1.01116         7.12807
     2006.04243         1.06631         7.03857
     2006.04517        -5.92854         7.37940
     2006.04791        10.19760         7.16730
     2006.05065         2.67575         7.22370
     2006.05338       -12.11710         7.28745
     2006.05612         3.04204         6.87428
     2006.05886        -7.02081         6.85834
     2006.06160        -1.53166         6.98707
     2006.06433         5.30848         7.19182
     2006.06707         0.72563         6.88531
     2006.06981        -1.09623         6.81788
     2006.07255        -3.55908         6.88409
     2006.07802        -8.87979         7.12807
     2006.08076        -4.37364         7.36224
     2006.08350         4.24051         6.92087
     2006.08624         6.45965         7.05696
     2006.08898         3.62480         6.88286
     2006.09171         5.77695         6.95397
     2006.09445         3.98509         7.05818
     2006.09719         9.53424         6.95275
     2006.09993        -8.39561         6.87428
     2006.10266        -8.04247         7.10109
     2006.10540        -8.26732         6.93926
     2006.10814        -4.89417         6.96623
     2006.11088        -9.96703         7.04224
     2006.11362       -12.79388         6.89512
     2006.11635       -10.73074         6.92945
     2006.11909        -2.24659         7.06309
     2006.12183         4.53656         6.95642
     2006.12457        -1.79930         6.90248
     2006.12731        -5.73015         6.89880
     2006.13004        -6.74800         6.91719
     2006.13278        -3.56286         6.88286
     2006.13552         1.17629         6.89022
     2006.13826         3.22544         6.91106
     2006.14099        -3.10242         6.94171
     2006.14373        -5.58327         7.00301
     2006.14647         7.15088         7.05941
     2006.14921         1.49802         7.01159
     2006.15195         2.81517         6.98217
     2006.15468         3.74932         6.97114
     2006.15742        10.61046         6.88531
     2006.16016        14.78361         6.98217
     2006.16290         6.63575         7.25802
     2006.16564        12.41990         7.01159
     2006.16837         3.68105         7.05941
     2006.17111         8.18419         6.90861
     2006.17385         0.65234         6.98217
     2006.17659         2.61949         6.93558
     2006.17932         8.02463         7.02753
     2006.18206         8.20578         7.03121
     2006.18480       -19.39107         7.21879
     2006.18754       -13.46493         7.05083
     2006.19028       -23.34078         8.04022
     2006.19301       -16.85263         7.02140
     2006.19575         7.15751         7.27274
     2006.19849        10.98966         7.09374
     2006.20123         8.85081         7.01772
     2006.20397        -4.84805         7.25925
     2006.20670         7.47710         7.59273
     2006.20944         8.26124         7.26906
     2006.21218         1.67639         7.12439
     2006.21492         5.63654         7.09374
     2006.21765         4.40968         6.98094
     2006.22039         0.93983         7.24576
     2006.22313         2.09998         7.11826
     2006.22587         0.20712         7.17098
     2006.22861        13.78427         7.16362
     2006.23134        -2.16958         7.04592
     2006.23408         4.68556         7.00914
     2006.23682         3.29471         7.02263
     2006.23956         9.82286         7.05696
     2006.24230         1.57200         6.95642
     2006.24503         3.28915         6.93681
     2006.24777         7.09330         7.07780
     2006.25051        -2.41756         6.99811
     2006.25325         9.59059         7.02508
     2006.25598         9.71473         7.04470
     2006.25872         8.79588         7.02753
     2006.26146         5.15703         7.19918
     2006.26420         8.50817         7.30706
     2006.26694         9.88932         7.10355
     2006.26967         5.62647         7.04715
     2006.27241         8.00161         7.02876
     2006.27515        10.72276         7.23718
     2006.27789        10.25691         7.22492
     2006.28062         9.00205         7.15259
     2006.28336        11.84420         6.99443
     2006.28610        27.24435         7.14155
     2006.28884        15.01649         7.09129
     2006.29156        15.92458         7.06064
     2006.29431         9.59579         7.27764
     2006.29705        11.74593         7.00301
     2006.29979        13.51108         7.22124
     2006.30253        11.95122         7.09006
     2006.30527         6.49037         6.99566
     2006.30800        13.79352         7.05328
     2006.31074        10.74866         7.06064
     2006.31348         7.78681         7.27396
     2006.31622        11.22096         7.21634
     2006.32169         5.66525         7.20898
     2006.32443         7.85640         7.16852
     2006.32717         5.36254         7.27519
     2006.32991         3.81669         7.03244
     2006.33264         1.45884         7.03979
     2006.33538         6.02298         7.08883
     2006.33812         8.19813         7.04960
     2006.34086        10.06028         7.11335
     2006.34360        12.75942         7.09374
     2006.34633         0.94957         7.20531
     2006.34907         4.53771         7.16362
     2006.35181         0.86586         7.33036
     2006.35455         5.55801         7.13174
     2006.35728         5.63615         7.09251
     2006.36002        -0.33570         7.14523
     2006.36276         3.07245         7.16239
     2006.36550        -2.25241         7.02998
     2006.36824         3.58874         7.11458
     2006.37097         7.97689         7.42231
     2006.37371         7.31703         7.38676
     2006.37645        11.26718         7.48361
     2006.37921         7.00140         7.38185
     2006.38193         9.81047         7.04102
     2006.38466        19.84262         7.26538
     2006.38740        12.54177         7.24944
     2006.39014         9.67891         7.15136
     2006.39288        10.38806         7.21389
     2006.39561         5.09420         7.31687
     2006.39835        12.91135         7.27396
     2006.40109        11.62250         7.25189
     2006.40383         7.73164         7.36346
     2006.40657         7.18379         7.27519
     2006.40930         4.19294         7.21266
     2006.41204         7.38308         7.10845
     2006.41478         6.38723         7.48484
     2006.41752        14.20838         7.85509
     2006.42026        14.12752         7.62706
     2006.42299         4.71367         7.54859
     2006.42573        15.36682         7.30706
     2006.42847        16.97996         7.38553
     2006.43121         5.53711         7.20408
     2006.43394        10.51326         7.19427
     2006.43668        -2.32560         7.17465
     2006.43942         7.80255         7.04837
     2006.44216         7.64969         7.14768
     2006.44490        11.14184         7.28867
     2006.44763        11.28699         7.28377
     2006.45037        10.25213         7.47748
     2006.45311         5.29928         7.22002
     2006.45585        14.98443         7.43580
     2006.45859         8.58257         7.16362
     2006.46131        15.67469         7.48852
     2006.46406         6.20587         7.65035
     2006.46680         9.28401         7.61602
     2006.46954         9.77816         7.20776
     2006.47227        11.76431         7.50691
     2006.47501        15.84745         7.34998
     2006.47775         4.79360         7.20653
     2006.48049         1.81075         7.30461
     2006.48323         9.65989         7.61602
     2006.48596        16.35804         7.36591
     2006.48870        23.05318         7.42844
     2006.49144        15.24733         7.33036
     2006.49418        12.73248         7.25802
     2006.49692        13.47262         7.26538
     2006.49965        17.24877         7.33281
     2006.50239        11.53192         7.19182
     2006.50513        13.93606         7.41373
     2006.50787        14.03021         7.39902
     2006.51060         6.94536         7.43947
     2006.51334         4.21550         7.12071
     2006.51608         7.96965         7.14155
     2006.51882        11.10980         7.18324
     2006.52156        28.20294         8.16528
     2006.52429        13.50409         7.26170
     2006.52703        17.40324         7.34752
     2006.52977        22.53238         7.28132
     2006.53251        15.50253         7.24086
     2006.53525        28.99067         7.35365
     2006.53798        23.62982         7.40392
     2006.54072        24.20797         7.38921
     2006.54346        14.32711         7.40269
     2006.54620        10.99226         7.19304
     2006.54893        18.36541         7.18691
     2006.55167        13.25555         7.31197
     2006.55441        11.17270         7.20408
     2006.55715        18.78785         7.21757
     2006.55989        15.31499         7.39656
     2006.56262         6.25414         7.37327
     2006.56536        16.08929         7.33649
     2006.56810         9.15643         7.15994
     2006.57084        34.96658         7.23596
     2006.57357        23.90073         7.29726
     2006.57631        17.75987         7.24944
     2006.57905        16.87002         7.14400
     2006.58179        15.11716         7.27151
     2006.58453        11.20031         7.16607
     2006.58726        14.71246         7.19182
     2006.59000        15.92560         7.35733
     2006.59274        13.68975         7.19918
     2006.59548        14.88690         7.32545
     2006.59822         8.12004         7.44438
     2006.60095        14.58619         7.33158
     2006.60369        -2.15366         7.36714
     2006.60643        17.66648         7.39411
     2006.60917        23.19763         7.39534
     2006.61190        12.97378         7.10232
     2006.61464        12.69892         7.17343
     2006.61738        17.14307         7.12071
     2006.62012        17.73122         7.19182
     2006.62286        13.79036         7.12439
     2006.62559        11.21551         7.21757
     2006.62833        17.51265         7.70552
     2006.63107        15.62980         7.19672
     2006.63381        17.80695         7.14768
     2006.63655        11.50109         7.25557
     2006.63928        19.47024         7.33036
     2006.64202        12.07139         7.36101
     2006.64476        18.42653         7.47993
     2006.64750        12.71968         7.28132
     2006.65023        16.07483         7.34385
     2006.65297        13.07197         7.49832
     2006.65571        17.89812         7.75824
     2006.65845        16.49427         7.96298
     2006.66119        19.82341         7.36346
     2006.66392        11.50256         7.54246
     2006.66666         8.30571         7.63564
     2006.66940        11.66285         7.30952
     2006.67214        15.63800         7.43702
     2006.67488        18.59214         7.44193
     2006.67761        10.46529         7.69449
     2006.68035        15.78744         7.61112
     2006.68309        17.99658         7.79379
     2006.68583        20.73473         7.69081
     2006.68856        24.02788         7.77050
     2006.69130        19.79402         7.28254
     2006.69404        17.65217         7.33036
     2006.69678        19.93032         7.33036
     2006.69952        22.37446         7.50691
     2006.70225         7.65261         7.66997
     2006.70499        13.00076         7.22002
     2006.70773        16.74090         7.36837
     2006.71047        19.03105         7.25557
     2006.71321        23.20920         7.40024
     2006.71594        24.80834         7.18078
     2006.71868        13.04249         7.13297
     2006.72142        18.51863         7.67119
     2006.72416        21.59278         7.52284
     2006.72689        20.42593         7.39534
     2006.72963        22.74207         7.31442
     2006.73237        22.19122         7.12316
     2006.73511        17.77237         7.23963
     2006.73785        12.97951         7.21266
     2006.74058        21.73166         7.34139
     2006.74332        23.68281         7.24331
     2006.74606        30.97995         7.17833
     2006.74880        29.74810         7.21511
     2006.75154        16.42925         7.36346
     2006.75427        18.57039         7.33158
     2006.75701        17.87154         7.16239
     2006.75975        18.83068         7.12194
     2006.76249        26.42283         7.43702
     2006.76522        20.17998         7.23963
     2006.76796        16.42812         7.36837
     2006.77070        17.84027         7.15259
     2006.77344        15.14442         7.22983
     2006.77618        16.66756         7.09496
     2006.77891        22.69571         7.05450
     2006.78165        20.65186         7.05573
     2006.78439        22.10200         7.13297
     2006.78713        15.92615         7.55227
     2006.78987        25.36930         7.36101
     2006.79260        15.46744         7.04347
     2006.79534        12.19759         7.14523
     2006.79808        15.75074         7.37204
     2006.80082        18.67788         7.24576
     2006.80355        15.15303         7.11703
     2006.80629        13.62617         7.01772
     2006.80903        20.62932         7.07657
     2006.81177        18.48347         7.09987
     2006.81451        19.48061         7.28377
     2006.81724         1.01876         7.34507
     2006.81998        14.81891         7.18691
     2006.82272        18.28705         7.05941
     2006.82546        19.18920         7.21021
     2006.82820        13.74635         6.98462
     2006.83093        15.74349         7.00669
     2006.83367        17.89364         6.98830
     2006.83641        14.40579         7.17588
     2006.83915         2.83093         7.67732
     2006.84188        10.47808         7.33281
     2006.84462        22.49023         7.52897
     2006.84736        13.45437         7.29848
     2006.85010        16.82152         7.44070
     2006.85284        11.69266         7.39166
     2006.85557        21.24781         7.47012
     2006.85831        15.38796         7.21511
     2006.86105        14.33410         7.45541
     2006.86379        10.02925         7.53510
     2006.86653         1.77140         7.51917
     2006.86926         3.35054         7.10968
     2006.87200         9.44569         7.24331
     2006.87474        13.96984         7.26415
     2006.87748        10.77898         7.03244
     2006.88021         3.45613         7.16730
     2006.88295         6.49828         7.11090
     2006.88569        10.60042         7.30339
     2006.88843         8.45557         7.02753
     2006.89117         8.50472         7.11581
     2006.89664        -9.60599         8.05248
     2006.89938         8.28915         7.23963
     2006.90212         0.58230         7.18691
     2006.90485        -4.57655         7.28009
     2006.90759         6.77359         7.09374
     2006.91033        -1.70726         6.98094
     2006.91307        -3.14211         7.28990
     2006.91581        -1.66697         7.12194
     2006.91854        -7.96582         7.05205
     2006.92128        -3.68767         7.10845
     2006.92402        -7.37353         7.11948
     2006.92676        -7.06038         7.13297
     2006.92950        -2.18223         7.08393
     2006.93223         2.02791         7.18937
     2006.93497         1.63006         7.29358
     2006.93771         6.92621         7.35120
     2006.94045         3.55935         7.32055
     2006.94318         9.62150         7.40024
     2006.94592         2.59264         7.38308
     2006.94866         3.04179         7.40515
     2006.95140         2.60994         7.27519
     2006.95414        22.52708         7.70429
     2006.95687        16.48423         7.38185
     2006.95961        10.78538         7.17711
     2006.96235        13.78552         7.12684
     2006.96509         7.75967         7.11335
     2006.96783        12.12982         7.29358
     2006.97056         4.33696         7.35120
     2006.97330        -3.10989         7.12194
     2006.97604        -0.16674         7.13542
     2006.97878         4.20840         7.32545
     2006.98151         4.53655         7.34262
     2006.98425         3.28770         7.38921
     2006.98699        13.97684         7.89923
     2006.98973        -1.05201         7.58905
     2006.99247       -10.79987         7.33526
     2006.99520        -2.21572         7.68468
     2006.99794        -6.64457         7.45051
     2007.00342         5.35272         7.53510
     2007.00616         4.28287         7.47993
     2007.00889         0.23901         7.34262
     2007.01163        -9.26484         7.17220
     2007.01984        -3.26440         7.20776
     2007.02258         3.77275         7.22124
     2007.02532         4.58789         7.07780
     2007.02806         4.80504         7.14155
     2007.03080        -1.68781         6.85712
     2007.03353        -5.45867         6.73451
     2007.03627        -6.00552         6.78110
     2007.03901        -9.33638         6.74310
     2007.04175        -7.75723         6.72716
     2007.04449        -8.17808         6.77129
     2007.04722        -5.98694         6.94294
     2007.04996        -0.68179         7.05941
     2007.05270        -0.01664         7.31319
     2007.05544        -9.28250         7.00301
     2007.05817        -6.35835         7.09129
     2007.06091        -3.89720         6.97727
     2007.06365        -2.99206         6.91229
     2007.06639        -8.31591         7.04960
     2007.06913        -2.67976         6.76149
     2007.07186         0.16738         6.73206
     2007.07460        -3.82147         6.74800
     2007.07734        -3.00532         6.63643
     2007.08008        -5.41618         6.69283
     2007.08282         0.15197         6.68425
     2007.08555        -2.49489         6.92455
     2007.08829        -3.88474         6.79949
     2007.09103         0.44041         6.93681
     2007.09377        -1.43345         6.91351
     2007.09650         3.22970         6.94784
     2007.09924        -2.57215         6.94662
     2007.10198         1.15699         6.77375
     2007.10472        -2.15686         7.10109
     2007.10746         9.99929         7.18078
     2007.11019         2.47643         6.93436
     2007.11293         0.83958         7.32668
     2007.11567         0.50873         7.03121
     2007.11841         3.52187         6.91596
     2007.12115         1.04402         6.93068
     2007.12388        -1.33183         7.02263
     2007.12662         5.86531         7.16239
     2007.12936        -1.11954         7.21511
     2007.13210         8.73960         7.12561
     2007.13483         7.17075         7.04102
     2007.13757        -5.03710         7.21634
     2007.14031         1.09604         7.17711
     2007.14305       -10.21281         7.06677
     2007.14579         8.28734         6.95888
     2007.14852         5.17748         7.15259
     2007.15126        24.96463         7.00424
     2007.15400        12.55278         6.93436
     2007.15674        10.67992         6.75413
     2007.15948         8.40107         6.90861
     2007.16221         6.47622         7.20408
     2007.16495        10.39236         7.09251
     2007.16769         5.07851         7.13174
     2007.17043         0.58066         6.89757
     2007.17316         6.80380         8.85920
     2007.17590         9.93295         7.11948
     2007.17864        13.30709         7.29971
     2007.18138        16.28124         7.21144
     2007.18412         4.17339         6.85466
     2007.18685         9.42953         6.90493
     2007.18959        12.64368         7.12194
     2007.19233        15.21283         7.17956
     2007.19507         2.44897         7.01159
     2007.19780        -0.90288         6.94662
     2007.20054        -2.70473         6.97236
     2007.20328         1.66141         7.08025
     2007.20602         8.98056         7.00792
     2007.20876         6.95371         7.09374
     2007.21149         3.78785         7.02876
     2007.21423         4.50800         7.12316
     2007.21697         2.29215         6.96623
     2007.21971         4.96229         6.95888
     2007.22245         2.12644         7.15749
     2007.22518         3.28858         6.89880
     2007.22792         0.54773         7.04715
     2007.23066         5.04188         6.94416
     2007.23340         7.48602         7.03121
     2007.23613        -2.08783         7.09619
     2007.23887         1.25032         6.89390
     2007.24161         9.16046         6.98585
     2007.24435       -16.85739         6.90861
     2007.24709         4.27976         7.00792
     2007.24982         9.44190         7.05573
     2007.25256        -0.55195         6.94907
     2007.25530        -1.49180         7.10968
     2007.25804         2.44734         6.99566
     2007.26078         7.55749         7.17711
     2007.26351         7.52364         6.93681
     2007.26625         5.59278         7.10232
     2007.26899        10.14493         7.17220
     2007.27173        13.75607         7.15259
     2007.27446         5.74922         6.99566
     2007.27720        11.59937         6.99443
     2007.27994        10.39651         6.96746
     2007.28262        10.32149         7.02140
     2007.28547         4.07198         6.96991
     2007.28815         1.38395         6.98462
     2007.29089         6.71010         7.01772
     2007.29363         8.46425         7.02508
     2007.29637         5.21139         6.80930
     2007.29911         1.97854         6.90370
     2007.30732         6.50098         7.00424
     2007.31006         8.78313         7.20898
     2007.31279        14.63127         7.02263
     2007.31553         5.08942         6.96991
     2007.31827        11.03256         7.08270
     2007.32101        -0.28229         7.10355
     2007.32375        -6.57514         7.21757
     2007.32648         6.73800         7.02140
     2007.32922         3.20115         6.97604
     2007.33196         7.88330         6.98585
     2007.33470         0.20744         7.01895
     2007.33744         6.66759         6.94539
     2007.34017         3.70974         7.18078
     2007.34291        -9.43112         7.12684
     2007.34565        -5.09097         7.09496
     2007.34839        -0.49282         7.01650
     2007.35112        13.53832         7.15872
     2007.35386        -0.83053         7.58905
     2007.35660         2.23562         7.49587
     2007.35934         3.98276         7.05941
     2007.36208         7.95991         7.23105
     2007.36481         1.40405         7.05696
     2007.36755         4.24520         7.22247
     2007.37029         8.78935         7.02876
     2007.37303        17.91649         7.35978
     2007.37531         0.23928         8.74641
     2007.37850         9.52079         7.26538
     2007.38124        12.46493         7.19427
     2007.38398         3.85308         7.34752
     2007.38672         2.28923         7.00056
     2007.38945         2.58537         6.96255
     2007.39105         6.17212        18.93829
     2007.39373        23.85210        22.59673
     2007.39767        -2.00819         7.02140
     2007.40041        11.04196         7.19427
     2007.40314         2.08311         6.93926
     2007.40588         2.06125         7.01895
     2007.40862         1.99340         7.00546
     2007.41136         4.63954         7.03244
     2007.41410         5.67069         8.11991
     2007.42326        36.11996        14.03054
     2007.42425        42.32690        12.46982
     2007.42778        11.13142         7.76192
     2007.43052         4.94357         6.94171
     2007.43326         9.11872         6.90003
     2007.43600         1.61586         7.14155
     2007.43874         6.54901         7.13910
     2007.44147         4.95816         7.22737
     2007.44421         0.06430         7.08883
     2007.44695        -2.75355         7.45909
     2007.44969        -9.56041         7.27151
     2007.45220         0.47306         7.85387
     2007.45516         6.86289         7.16730
     2007.45790         1.72103         6.94907
     2007.46064         8.02018         7.10232
     2007.46338         6.98833         7.07535
     2007.46611         1.70047         6.99443
     2007.46885        11.76562         7.29480
     2007.47159        12.21477         7.13052
     2007.47433         1.32391         7.12561
     2007.47707         0.79806         7.45051
     2007.47980        -3.74079         7.02263
     2007.48254        -1.30565         7.13297
     2007.48528        -1.26650         6.98094
     2007.48802         4.77265         7.11090
     2007.49076        14.04879         7.04224
     2007.49349         2.44194         7.19059
     2007.49623         4.24908         7.19672
     2007.49897         4.66023         7.38553
     2007.50171         1.82438         7.11335
     2007.50444         8.52452         7.03489
     2007.50718         4.69267         7.25312
     2007.50992         9.27982         7.06431
     2007.51266         5.72596         7.38676
     2007.51540        15.10211         7.32791
     2007.51813         3.55226         7.13542
     2007.52087         8.60540         7.05083
     2007.52361         2.95555         7.13297
     2007.52635         9.80670         7.17465
     2007.52908         8.53984         7.41863
     2007.53182         6.92299         7.34385
     2007.53456         6.55814         7.25189
     2007.53730        -0.35872         7.28500
     2007.54004        11.53143         7.28745
     2007.54277        14.31757         7.24944
     2007.54551         3.92072         7.09006
     2007.54825         8.41687         7.12316
     2007.55099        18.42001         7.15872
     2007.55373         2.28116         7.03734
     2007.55646         7.53831         7.26415
     2007.55920         9.33545         7.45173
     2007.56194        12.45260         7.13052
     2007.56468        16.61375         7.17956
     2007.56741        13.02689         7.25435
     2007.57015        10.59204         7.11458
     2007.57289         3.16519         7.21389
     2007.57563         1.62933         7.07903
     2007.57837         6.03648         7.13787
     2007.58110        14.85563         7.20163
     2007.58384        16.64777         7.32423
     2007.58658        32.65492         7.19304
     2007.58932         9.11606         7.08025
     2007.59206        13.78521         7.08883
     2007.59479         6.39836         7.33036
     2007.59753        12.70250         7.47993
     2007.60027        21.48465         7.37817
     2007.60301        16.69680         7.33036
     2007.60574        13.15194         7.25557
     2007.60848        14.25209         7.07044
     2007.61122        15.51224         7.24576
     2007.61396         1.93838         7.12561
     2007.61670         7.34753         7.54982
     2007.61943         9.07768         7.52284
     2007.62217        11.02482         7.42844
     2007.62491        10.30497         7.37450
     2007.62765        13.92412         7.54736
     2007.63039        21.26626         7.60744
     2007.63312        15.47041         7.18937
     2007.63586        12.10255         7.25802
     2007.63860        11.53970         7.26661
     2007.64134        11.22585         7.15994
     2007.64407        15.07699         7.81218
     2007.64681        10.07314         7.58660
     2007.64955        18.15429         7.67119
     2007.65229        15.26143         7.41741
     2007.65503        13.30858         7.42721
     2007.65776        15.25073         7.05328
     2007.66050        29.01587         7.35856
     2007.66324        17.59702         7.21511
     2007.66598        10.73417         7.14033
     2007.66872        12.71431         7.29603
     2007.67145        20.43946         7.17588
     2007.67419        21.54861         7.37817
     2007.67635        14.29304         9.35819
     2007.67967        18.28790         7.16485
     2007.68322        22.32046        11.71705
     2007.68514        16.84319         7.60008
     2007.68788        13.55034         7.35120
     2007.69062        18.25248         7.01282
     2007.69336        23.78763         7.28500
     2007.69609        21.06078         7.16607
     2007.69883        20.46192         7.09864
     2007.70157        19.60807         7.25680
     2007.70431        16.97722         7.30706
     2007.70705        19.99236         7.15504
     2007.70978        13.70751         7.23228
     2007.71252        16.05066         7.53633
     2007.71526        18.38880         7.07412
     2007.71800        19.35395         7.13420
     2007.72073        21.22810         7.10845
     2007.72347        22.25824         7.18569
     2007.72621        18.57939         7.09251
     2007.72895        20.22453         7.19795
     2007.73169        16.79168         7.33281
     2007.73442        11.00883         7.28377
     2007.73716        20.52197         7.34998
     2007.73990        24.63312         7.24944
     2007.74264        24.90927         7.13665
     2007.74538        21.59441         7.18569
     2007.74811        10.27756         7.37940
     2007.75085        20.06371         7.57311
     2007.75359        20.81485         7.47258
     2007.75633        21.82500         7.23350
     2007.75906        24.73715         7.12316
     2007.76180        15.71729         7.12316
     2007.76454        11.07944         7.18078
     2007.76728        16.10659         8.05126
     2007.77002        18.15073         7.78889
     2007.77275        13.66288         7.52530
     2007.77549        17.65602         7.11703
     2007.77823        21.06017         7.12071
     2007.78097        18.21532         7.11703
     2007.78371        11.54846         7.05205
     2007.78644        21.43261         7.11090
     2007.78918        26.50576         7.14523
     2007.79192        19.42290         7.23350
     2007.79466        20.21605         7.45786
     2007.79739        27.06120         7.51549
     2007.80013        20.16634         7.16117
     2007.80287        10.89149         7.21266
     2007.80561         9.36764         7.15749
     2007.80835        13.89078         7.24086
     2007.81108         8.55293         7.29971
     2007.81382        18.10608         7.47871
     2007.81656        10.44922         7.48361
     2007.81930        12.18137         7.00914
     2007.83025        18.57695         7.20285
