# ================= DQRFIT RESULTS ================
# INPUT FILE: series/HLSY.rad
# OUTPUT: LDETRENDED
# FILTER FUNCTION: f(t)
# f(t)=+line(t)+annual(t)+jumps(t)
# line(t)=+P 1+P 2*t
# annual(t)=+P 3*sin(2*pi*t+P 4)
# jumps(t)=+P 5*heav(t-2014.3463  )
# heav(t)=(t<0?0:1)
# TOTAL OBSERVATIONS MTOT= 4057
# INITIAL TIME INTERVAL= 2022.6995 - 2006.9555 = 15.7440
# TOTAL OBSERVATIONS AFTER PREFILTER M= 3999
# TIME-SPAN= 2022.6995 - 2006.9744 = 15.7251
# OBSERVATIONS: USED M=  3999 REJECTED MTOT-M=    58 %USED=   98.5704
# N=  5 PARAMETERS
# MAXSIG= 175.00000
# MAXRES=  61.36640
# SCALE FACTOR FOR LENGTHS: SCL=  10.00000
# SCALE FACTOR FOR SIGMAS: SCLSIG=   1.00000
# CHI^2=   3276.107 DOF=  3994 CHI^2/DOF=   0.82026
# RMS=      8.518 SDEV=      8.518 MEAN=    0.10719
#  P #       PARAMETER +-    SIGMA %error PARAMETER NAME
# P 1 =      1344.34269 +-   88.872   6.61 YZERO                              
# P 2 =        -0.71667 +-    0.044   6.17 SLOPE                              
# P 3 =         4.49515 +-    0.152   3.39 ANNUAL AMPLITUDE                   
# P 4 =        -2.76547 +-    0.045   1.61 ANNUAL PHASE                       
# P 5 =       101.64399 +-    0.449   0.44 OFFSET 2014.3463                   
#       T            LDETRENDED       SIG_OBS
     2006.97442       -12.55584        11.72585
     2007.37126        10.15356         9.58301
     2007.37303        -2.19517         5.28555
     2007.37577        -3.23521         5.22940
     2007.37850        -8.50125         5.11438
     2007.38124        -3.33929         5.11709
     2007.38398        -4.54732         5.22034
     2007.38672        -2.55836         5.07272
     2007.38945       -10.39440         5.15151
     2007.39219         1.60356         5.29461
     2007.39493        -0.19147         5.13430
     2007.39767         0.75549         5.15785
     2007.40041         5.79645         5.11076
     2007.40314        -7.79059         5.10079
     2007.40498        -5.24927        31.89082
     2007.42348       -10.10301        15.21000
     2007.42505         2.44911         5.36435
     2007.42778         4.52007         5.05279
     2007.43052         6.22203         4.96856
     2007.43326         2.19500         5.05732
     2007.43600         2.48896         5.24842
     2007.43874         3.55192         5.12525
     2007.44147        -0.80112         5.51741
     2007.44421        -2.94316         5.30095
     2007.44695        -0.59519         5.19770
     2007.44969        -3.06723         5.01294
     2007.45243        -2.53427         5.03830
     2007.45516        -2.43831         5.21581
     2007.45790         2.96065         5.00479
     2007.46064        -0.27838         4.99030
     2007.46338        -0.16042         5.08811
     2007.46611         1.53154         5.04645
     2007.46885         4.99850         4.98487
     2007.47159        -0.32653         4.98487
     2007.47433         1.62843         5.06728
     2007.47707         1.21939         5.17053
     2007.47980        -4.68465         4.98487
     2007.48254        -1.38369         4.97128
     2007.48528        -0.18872         5.03106
     2007.48802        -0.59176         5.12525
     2007.49076        -0.20280         5.17144
     2007.49349         0.97016         4.98034
     2007.49623         1.18613         5.00388
     2007.49894         4.00907         5.16057
     2007.50171        -0.34295         5.17325
     2007.50444         0.29101         5.01566
     2007.50718        -3.43703         5.12706
     2007.50992        -0.61306         4.99845
     2007.51266        -6.24510         5.00660
     2007.51540         1.46386         5.05823
     2007.51813         1.39182         5.05551
     2007.52087        -3.29022         5.02743
     2007.52361        -1.77925         5.02200
     2007.52635         8.11071         5.23846
     2007.52908         2.33067         5.22759
     2007.53182         0.51663         5.13249
     2007.53456        -1.16840         5.28917
     2007.53730         2.23856         5.14155
     2007.55489       -18.77484        14.31337
     2007.55646         0.71929         5.11438
     2007.55920         9.82525         5.05370
     2007.56194         5.69222         5.06728
     2007.56468         2.68818         5.21944
     2007.56741        -1.08586         5.13702
     2007.57015         2.80910         5.25657
     2007.57289         2.49307         5.05007
     2007.57563         1.39303         5.00932
     2007.57837        -2.52601         5.03830
     2007.58110        -2.59805         5.60526
     2007.58384         3.21591         5.31363
     2007.58658         2.93588         5.11981
     2007.58932         4.61684         5.04102
     2007.59206         7.62680         5.02290
     2007.59479         6.71376         5.22215
     2007.59753         4.05072         5.22578
     2007.60027         1.07269         5.24751
     2007.60301        11.02165         4.99845
     2007.60574         4.59361         4.97490
     2007.60848         5.91257         5.22940
     2007.61122        10.16054         5.26563
     2007.61396         4.02950         5.06185
     2007.61670         0.41346         5.41235
     2007.61943         2.59942         5.33536
     2007.62217         2.58038         5.44857
     2007.62491         6.85535         5.52737
     2007.62765         5.34331         5.43861
     2007.63039         5.65527         5.57718
     2007.63312        -6.15877         5.35619
     2007.63586         4.15419         5.13883
     2007.71526        14.25410         5.22849
     2007.71800        13.29006         5.11438
     2007.72073        10.62902         5.20042
     2007.72347        12.24698         5.17144
     2007.72621        11.40195         5.07725
     2007.72895         7.10391         5.20404
     2007.75173         2.88223         9.32579
     2007.75359        10.17357         5.57175
     2007.75633        10.05453         5.20857
     2007.75906        10.51049         5.11257
     2007.76180         9.04345         5.08630
     2007.76454         9.21042         5.08902
     2007.76728        12.46238         5.53643
     2007.77002        13.21134         5.46306
     2007.77275         8.30630         5.36163
     2007.77549         4.65826         5.11709
     2007.77821         5.43221         5.20676
     2007.78097         8.93219         5.08268
     2007.78371         2.35315         5.03830
     2007.78644        16.21511         5.09264
     2007.78918         9.13307         5.19136
     2007.79192        10.74704         5.23212
     2007.79466        12.12800         5.42593
     2007.79739         4.33396         5.53190
     2007.80013         8.80792         5.21672
     2007.80287         2.76989         5.12796
     2007.80561         5.03385         5.12072
     2007.80821         2.46971         5.59439
     2007.81108         4.93777         5.36163
     2007.81382        -4.29427         5.28283
     2007.81656         0.37970         5.44586
     2007.81930         2.41066         5.22759
     2007.82203        -3.32138         5.17778
     2007.82477        -2.23242         5.29008
     2007.82751         4.94455         5.26200
     2007.83025         0.14051         5.25295
     2007.83299        -0.95353         5.18412
     2007.83572        -2.04557         5.06728
     2007.83846        -1.10261         5.04826
     2007.84120         3.34936         5.08540
     2007.84394        -4.28168         5.18955
     2007.84668        -5.84272         5.11800
     2007.84941        -3.63776         5.15513
     2007.85215         4.27320         5.28102
     2007.85486        -7.43386         5.66775
     2007.85763        10.17413         5.42865
     2007.86036        -2.79691         5.16781
     2007.86310         9.68805         5.33174
     2007.86584         0.79502         5.13883
     2007.86858         2.79898         5.11528
     2007.87132         0.63394         5.25476
     2007.87405        -1.48710         5.28736
     2007.87679         7.87886         5.10623
     2007.87953        -8.20717         5.15876
     2007.88227       -11.95221         5.15513
     2007.88500        -4.54226         5.10713
     2007.88780        -5.29725         5.25566
     2007.89053        -2.73729         5.23483
     2007.89321        -0.91937         5.68496
     2007.89596         2.16960         5.23212
     2007.89869        -1.24844         5.37612
     2007.90143        -6.67448         5.23755
     2007.90417        -8.96551         5.38970
     2007.90689        -3.49857         5.30638
     2007.90959        -4.22463         5.39786
     2007.91335         3.11606         9.65003
     2007.91512         2.11333         5.31634
     2007.91786        -7.79070         5.52193
     2007.92060        -5.54474         5.27106
     2007.92334       -11.88678         5.53461
     2007.92607        -4.35282         5.16328
     2007.92881        -4.05786         5.33808
     2007.93155        -1.80889         5.26653
     2007.93429        -4.58293         5.21219
     2007.93702        -5.44897         5.41054
     2007.93976        -6.30401         5.13159
     2007.94250         0.35996         5.15785
     2007.94524        -7.57308         5.44042
     2007.94798       -11.45812         5.33265
     2007.95071         0.47284         5.23574
     2007.95345         4.48680         5.38699
     2007.95619        -1.63523         5.30638
     2007.95893         2.47073         5.30548
     2007.96167        -3.50531         5.78096
     2007.96440         0.60365         5.34804
     2007.99821         1.70088         9.47795
     2008.00000       -14.49084         5.19679
     2008.00273        -7.95488         5.15061
     2008.00547         2.53108         5.11438
     2008.00821         2.11105         5.21310
     2008.01095        -2.27199         5.22397
     2008.01368        -2.37403         5.35619
     2008.01642         0.29993         5.16238
     2008.01916        -5.61210         5.21581
     2008.02190        -3.94614         5.11709
     2008.02464        -2.49818         5.14155
     2008.02737        -4.03922         5.09717
     2008.03011        -9.58326         5.15513
     2008.03285        -9.52829         5.11800
     2008.03559        -0.45933         5.08721
     2008.03833       -13.99637         5.17415
     2008.04753         0.13723         8.52789
     2008.04928       -10.13652         5.15785
     2008.05201        -5.40356         5.42050
     2008.05475        -3.17060         5.07453
     2008.05749        -3.46263         5.07543
     2008.06029        -2.10763         5.21400
     2008.06297         0.73029         5.12615
     2008.06570         2.94925         5.15513
     2008.06844        -2.30679         5.22849
     2008.07118       -11.38582         5.49929
     2008.07392       -13.27086         5.49929
     2008.07666        -1.82890         5.53733
     2008.07939        -4.61994         5.42684
     2008.08213        -4.25598         5.29733
     2008.08487       -10.71501         5.10894
     2008.08761        -8.71705         5.03921
     2008.09034        -2.96709         5.06638
     2008.09308        -6.22713         5.35619
     2008.09582         1.44384         5.39333
     2008.09856        -4.26620         5.36616
     2008.10130         0.63276         5.38518
     2008.10403        -0.17528         5.07996
     2008.10677        -2.10132         5.18683
     2008.10951        -1.30935         5.35076
     2008.11222        -5.79341         5.14970
     2008.12046        -9.83851         5.06819
     2008.12320        -1.52754         5.20676
     2008.12594         0.16842         5.07996
     2008.12867        -1.43462         5.16781
     2008.13141        -1.99166         5.07091
     2008.13415        -3.56369         5.14336
     2008.13689         3.27727         5.08992
     2008.13963        -2.42177         5.07362
     2008.14236         2.44319         5.10079
     2008.14510         3.11915         5.19951
     2008.14784        -0.85988         5.12887
     2008.15058        -1.01292         5.03830
     2008.15331        -6.24196         5.15242
     2008.15605        -3.01800         5.14970
     2008.15879         0.88396         5.03649
     2008.16100        -2.36945         7.07427
     2008.17061       -21.26556         8.18645
     2008.17248        -1.97722         5.12977
     2008.17522        -1.40826         5.19951
     2008.17796        -3.83830         5.14336
     2008.18069       -12.06934         4.98215
     2008.18343        -1.44938         5.04011
     2008.18617        -7.33241         4.99936
     2008.18891        -5.19845         5.11709
     2008.19164        -6.86149         5.29823
     2008.19438        -1.20653         5.06638
     2008.19712         2.31344         5.05551
     2008.20260        -4.83364         5.16691
     2008.20533         4.26132         5.11347
     2008.20807        -0.67372         5.45401
     2008.24914         2.87172         5.09355
     2008.25188         9.01768         5.13974
     2008.25462         5.03164         5.00751
     2008.25735        -0.03840         5.14336
     2008.26009         5.25456         5.02562
     2008.26283        -2.24147         5.13974
     2008.26557         4.71649         5.10713
     2008.26830        -0.38755         5.06819
     2008.27104        -1.85259         5.03106
     2008.27378         0.51538         5.03830
     2008.27652         2.78734         5.02472
     2008.27926         0.06830         5.20042
     2008.28199         7.13526         5.30729
     2008.28473         3.79422         5.22940
     2008.28747         5.71919         5.10260
     2008.29021         7.37415         5.15332
     2008.29295         5.96411         5.10804
     2008.29568         5.84107         5.04464
     2008.29842         0.60403         5.12615
     2008.30115        -3.95201         5.22125
     2008.30390         2.65096         5.07634
     2008.30663        -1.16008         5.17234
     2008.30937        -3.42412         5.28917
     2008.31211         0.59185         5.14427
     2008.31485         3.76081         5.05098
     2008.31759         2.12177         5.16057
     2008.32032         2.65873         5.21581
     2008.32306         4.03469         5.86338
     2008.32858         3.99565         5.20313
     2008.33128        -2.38342         5.09355
     2008.33401         4.24654         5.13068
     2008.33675         1.74850         5.24027
     2008.33949         8.21047         5.21853
     2008.34219        -3.09459         7.75534
     2008.35318         1.45228         5.17687
     2008.35592         3.56324         5.27831
     2008.35865         2.95420         5.06909
     2008.36139         6.19216         5.12706
     2008.36413         3.27613         5.22487
     2008.36683         3.20306         5.29008
     2008.42532         9.57698        10.59284
     2008.42711         1.74126         5.43499
     2008.42984        -2.43978         5.05913
     2008.43258         2.87718         5.09808
     2008.43533        -0.05785         5.17325
     2008.43805         1.39010         6.13055
     2008.44079        -1.19293         5.33627
     2008.44352        -2.63698         5.09536
     2008.44600        -1.59220         6.71743
     2008.54209        -0.84033         5.03468
     2008.54483         1.23263         5.13159
     2008.54757         0.43159         5.08811
     2008.55030         4.76955         4.95045
     2008.55304         5.19351         5.23212
     2008.55578         8.35548         5.05823
     2008.55852         5.35144         5.15604
     2008.60506         9.68080         5.15242
     2008.60780         3.67276         5.09898
     2008.61054         1.07372         5.09626
     2008.61327         4.16768         5.09445
     2008.61601         8.63964         5.16238
     2008.61875         4.39061         5.12796
     2008.62149         5.43857         5.09083
     2008.62423         2.41853         5.03015
     2008.62696        17.97949         5.21853
     2008.62970         5.19445         5.47484
     2008.63244         7.84542         5.24027
     2008.63518         6.87338         5.54005
     2008.63791         3.48634         5.16419
     2008.64065         8.36830         5.13159
     2008.64339         6.16727         5.13793
     2008.64613        15.75723         5.46306
     2008.64887         6.79719         5.56812
     2008.65160         5.63315         5.08177
     2008.65434         0.79611         5.28102
     2008.65708        10.92908         5.40510
     2008.65982         4.04804         5.24570
     2008.66256         9.39400         5.21672
     2008.66529         9.64696         5.29733
     2008.66803        -2.19508         5.10532
     2008.67077        -0.01311         5.22668
     2008.67351         3.97085         5.22759
     2008.67624         1.37781         5.65688
     2008.67898        12.49877         5.20495
     2008.68172         6.56074         5.23121
     2008.68446         2.99870         5.22759
     2008.68720         6.88966         5.13611
     2008.68993         9.86562         5.24842
     2008.69267         1.47858         5.19317
     2008.69541         7.49755         5.10532
     2008.69815         8.71551         5.21038
     2008.70089         6.09047         5.37159
     2008.70362         5.60143         5.08177
     2008.70636         9.49139         5.04011
     2008.70910         8.05136         5.12887
     2008.71184         5.22532         5.29914
     2008.71457         2.55028         5.09898
     2008.71731         6.59024         5.03468
     2008.72005         5.34421         5.00660
     2008.72279         3.42017         5.10623
     2008.72553         5.38813         5.13793
     2008.72826         1.87209         5.08721
     2008.73100         6.78305         5.29914
     2008.73374         1.28402         5.28646
     2008.73648         1.70698         5.00117
     2008.73921         5.57194         5.05098
     2008.74469         4.27186         5.06909
     2008.74743         6.75783         5.06094
     2008.75017         6.87179         5.06185
     2008.75290         5.58275         5.10351
     2008.75564         2.43971         5.16057
     2008.75838         5.70868         5.16419
     2008.76112         1.18464         5.11619
     2008.76386         2.04460         5.10442
     2008.76659       -12.24444         5.30004
     2008.76933        -1.20748         5.18049
     2008.77207        -2.24751         5.00479
     2008.77481        -1.46755         4.98487
     2008.77754        -2.02059         4.96856
     2008.78028         5.36637         4.98396
     2008.78302        -5.98267         4.99845
     2008.78576        -2.19370         5.04011
     2008.78850         0.76126         5.08630
     2008.79123         4.75422         5.20404
     2008.79397        -2.53882         4.94773
     2008.79671         2.31915         5.18230
     2008.79945        -3.26389         5.06819
     2008.80219         7.04907         5.29370
     2008.80492         0.18203         5.09717
     2008.80766         1.31099         5.09355
     2008.81040         0.78096         5.11891
     2008.81314         2.06092         5.10442
     2008.81587         0.56388         5.07725
     2008.81861        -1.76416         5.09626
     2008.82135        -1.67620         5.05913
     2008.82409         1.23577         5.14064
     2008.82683        -2.01027         5.09445
     2008.82956        -2.01931         5.12253
     2008.83230         1.74465         5.13430
     2008.83504        -1.70138         5.21219
     2008.83778         0.03058         5.12977
     2008.84052        -1.17346         5.09717
     2008.84325        -0.49450         5.13793
     2008.84599         4.60246         4.99211
     2008.84873        -6.29657         5.16600
     2008.85147         1.25939         5.05823
     2008.85420        -1.94765         5.19317
     2008.86789         3.27416         5.53371
     2008.87063        -3.50788         5.13611
     2008.87337        -8.84091         5.02290
     2008.87611        -4.05695         5.13883
     2008.87885        -6.94799         5.08902
     2008.88158        -7.29703         5.03558
     2008.88432       -11.36807         5.15423
     2008.88706        -8.08910         5.23121
     2008.88980        -5.70714         5.19951
     2008.89253        -2.56618         5.14517
     2008.89527        -5.77122         5.12253
     2008.89801        -4.56225         5.15242
     2008.90075        -5.49429         5.08358
     2008.90349        -7.25633         5.07091
     2008.90622        -7.31337         5.22397
     2008.90896         0.50959         5.07181
     2008.91170        -1.80544         5.14517
     2008.91444        -0.87148         5.05460
     2008.91718        -2.19552         5.12072
     2008.91991         2.30144         5.16238
     2008.92265        -1.15560         5.09536
     2008.92539        -4.12163         5.11166
     2008.92813         3.37033         5.04736
     2008.93086        -1.82871         5.09717
     2008.93360       -15.45775         5.28917
     2008.93634        -6.83878         5.24117
     2008.93908       -14.43382         5.04011
     2008.94182       -11.23286         5.30457
     2008.94455        -7.83390         5.25929
     2008.94729        -5.92694         5.26291
     2008.95003        -5.53397         5.06547
     2008.95277        -1.20401         4.99392
     2008.95551         2.07695         5.01566
     2008.95824        -1.19709         4.99211
     2008.96098        -3.21413         5.06457
     2008.96372       -11.55516         5.18502
     2008.96646        -6.00420         5.15332
     2008.96919        -7.61024         5.02109
     2008.97193       -11.44728         5.21038
     2008.97467        -4.85031         5.08268
     2008.97741        -3.04235         5.07272
     2008.98015        -5.20839         5.08540
     2008.98288         0.25057         5.12434
     2008.99480         4.68911         9.33666
     2008.99657       -14.72562         4.99664
     2008.99931       -10.53166         5.13793
     2009.00479        -5.31773         5.08721
     2009.00752        -5.28077         4.96494
     2009.01026        -3.25981         4.97309
     2009.01298        -3.27986         5.09808
     2009.01579        -3.18685         5.27921
     2009.01848        -9.67092         5.13611
     2009.02121        -5.48396         5.17868
     2009.02395       -12.98200         5.12072
     2009.02669       -11.38703         5.08902
     2009.02943       -16.41207         5.07543
     2009.03216       -10.76511         5.04102
     2009.03490       -14.39715         5.00026
     2009.03764       -10.35419         5.05551
     2009.04038       -11.55222         5.01204
     2009.04312       -13.26426         4.97219
     2009.04585       -10.31830         5.00388
     2009.04859       -10.17134         4.97309
     2009.05133        -7.42937         5.08449
     2009.05407       -10.41141         5.01928
     2009.05681        -7.28845         5.02562
     2009.05954        -3.98549         5.01566
     2009.06228        -9.32353         5.03558
     2009.06502        -9.02956         5.07272
     2009.06776       -12.53160         5.05098
     2009.07049        -5.65964         5.06457
     2009.07323        -9.08268         5.07181
     2009.07597        -9.59372         4.99845
     2009.07871       -11.87575         4.96313
     2009.08145        -8.80779         5.00298
     2009.08418        -9.95683         5.17687
     2009.08692        -6.55387         5.09989
     2009.08966        -8.46190         4.98215
     2009.09240        -2.89494         5.01838
     2009.09514        -6.07398         5.02653
     2009.09787        -4.46702         5.02109
     2009.10061        -6.06006         5.06909
     2009.10335        -0.35309         5.24208
     2009.10609        -2.68913         4.99392
     2009.10882        -0.67317         4.97943
     2009.11156        -3.55221         5.03649
     2009.11430        -4.46025         5.15966
     2009.11704        -0.14228         5.11438
     2009.11978        -2.17132         4.96313
     2009.12251         2.29664         4.96585
     2009.12525        -1.60440         5.04645
     2009.12799         3.14457         4.99121
     2009.13073        -0.87447         5.05007
     2009.13347        -7.04351         5.08721
     2009.13620        -7.02155         5.11076
     2009.13894        -7.52459         4.96585
     2009.14168        -5.77962         4.95770
     2009.14442        -6.92766         5.12434
     2009.14715       -15.33270         5.29461
     2009.14989        -7.76274         5.23212
     2009.15263        -7.19778         4.99483
     2009.15537        -3.69581         5.16691
     2009.15811        -5.04985         5.06638
     2009.16084        -5.89389         5.07272
     2009.16358        -4.18093         5.10804
     2009.16632        -2.23296         5.11076
     2009.16906         0.68700         5.28646
     2009.17180         1.25396         4.98487
     2009.17453        -6.44908         5.00207
     2009.17727        -2.63012         5.18502
     2009.18001        -2.70515         5.05279
     2009.18275       -11.71419         4.99845
     2009.18548        -0.73023         5.04192
     2009.18822        -4.39627         5.00207
     2009.19096        -6.39431         4.98939
     2009.19375        -1.85831         5.06366
     2009.19644        -1.64538         4.97490
     2009.19917         4.90658         5.04192
     2009.20194        -5.60444         5.04011
     2009.20465        -4.04749         5.02653
     2009.20739        -8.81253         5.06275
     2009.21013        -5.75857         4.97581
     2009.21286        -4.99161         5.05370
     2009.21560         1.84735         4.95770
     2009.21834        -0.22468         5.03468
     2009.22108        -0.62772         5.00298
     2009.22381        -6.19276         4.97309
     2009.22655        -4.16780         4.96766
     2009.22929        -0.16183         4.98939
     2009.23203        -1.92487         4.96947
     2009.23477        -3.73391         5.09626
     2009.23750         0.00805         5.14517
     2009.24024        -3.66599         5.10623
     2009.24298         2.69398         5.03740
     2009.24572         4.72594         5.19136
     2009.24846        -1.57110         5.11347
     2009.25119         0.44186         5.35891
     2009.25393        -2.21618         5.26744
     2009.25667        -3.28621         5.05460
     2009.25941        -5.68225         5.02019
     2009.26207        -6.11234         5.77824
     2009.26480        -2.77039         5.35891
     2009.26876       -40.30055       105.60416
     2009.27415        -2.38568        11.55105
     2009.27583         3.76352         5.06638
     2009.27857        -2.74352         5.06909
     2009.28131        -9.03155         5.25204
     2009.28405       -10.09159         5.67681
     2009.28679         0.01037         5.51469
     2009.28952        -5.83467         5.07543
     2009.29226        -7.21171         5.13521
     2009.29485        -4.50285         5.40691
     2009.30153         9.08494        11.82366
     2009.30321        -6.32386         5.27197
     2009.30595        -0.52589         5.07543
     2009.30869         3.01407         5.16872
     2009.31143        -6.15197         5.23483
     2009.31416        -3.19101         5.11709
     2009.31690        -4.06205         5.03287
     2009.31964        -0.54608         5.04373
     2009.32238        -4.46912         5.03921
     2009.32512        -3.87016         5.23302
     2009.32785       -10.14720         5.25838
     2009.33059         2.26476         5.08268
     2009.33333       -13.37727         5.21944
     2009.33607        -6.45431         5.17959
     2009.33880        -3.51035         5.19227
     2009.34154       -10.80239         5.26834
     2009.34428       -11.29342         5.11438
     2009.34702        -8.89146         5.12525
     2009.34976        -7.10450         5.10532
     2009.35249        -5.71054         5.07906
     2009.35523       -10.11358         5.13611
     2009.35797        -8.59961         5.34261
     2009.36071       -12.84965         5.24117
     2009.36344        -6.58469         5.07272
     2009.36618        -5.07473         5.13521
     2009.36892         0.42723         5.08540
     2009.37166        -7.21880         5.07091
     2009.37440        -8.55684         5.05007
     2009.37713        -7.34388         5.08992
     2009.37987        -4.71892         5.32902
     2009.38261        -5.81895         5.04102
     2009.38535        -2.85499         5.09989
     2009.38809       -12.19003         5.05279
     2009.39082       -12.17207         5.03196
     2009.39356        -8.21811         5.02472
     2009.39630        -4.14214         5.05732
     2009.39904        -1.24318         5.06366
     2009.40177        -3.87022         5.08992
     2009.40451         0.78274         5.06185
     2009.40725         1.50470         5.10985
     2009.40972        -2.01153         5.78096
     2009.55509         0.64466         5.11800
     2009.55783         0.97462         5.03921
     2009.56057         2.45558         5.28646
     2009.56331         4.75455         5.27559
     2009.56605        -1.93649         5.20495
     2009.56878        -1.87853         5.07000
     2009.57152         2.51643         5.09083
     2009.57426        -1.78960         5.09717
     2009.57700         5.52536         5.15876
     2009.66824        11.30075         9.10118
     2009.73394         2.96684         9.51961
     2009.73579        -3.58384         5.31091
     2009.73853         2.78812         5.10351
     2009.74127         2.73809         5.16419
     2009.74401         1.79105         5.39967
     2009.74674        -3.46099         5.07091
     2009.74948         2.04097         5.57084
     2009.75222        -7.21306         5.10985
     2009.75496         5.54490         6.11153
     2009.75696         5.57533         7.25450
     2009.76382        -2.78075        11.20146
     2009.78198         9.40727        10.04853
     2009.78781         9.11944        10.22332
     2009.79055       -11.26359         5.26019
     2009.79329        -4.03463         5.58352
     2009.79603        -8.60567         5.38337
     2009.80246       -13.32806        10.76854
     2009.80424         0.06622         5.31997
     2009.80698        -1.22282         5.31272
     2009.80939         2.25591         5.93492
     2009.83776       -13.30876         7.92108
     2009.83983        -1.33528         5.14608
     2009.84257         1.43069         5.29461
     2009.84531        -3.24835         5.41688
     2009.84700        13.58086        10.96598
     2009.86721        -5.00465         5.48661
     2009.86916         5.49474         8.01074
     2009.87597         4.58562        10.09472
     2009.88369         6.68316         5.33446
     2009.88529        18.25230        10.81654
     2009.93398         3.52820        10.38453
     2009.93462        10.05466        10.33653
     2009.94113         1.04932         5.07453
     2009.94387         7.33129         7.88395
     2009.94661         0.79225         8.26162
     2009.94869         4.36674        13.65313
     2009.95761       -16.67187         5.32540
     2009.96030        -9.83994         5.09717
     2009.96303       -10.68898         5.07000
     2009.96577       -11.27602         5.15151
     2009.96851        -8.50505         5.35801
     2009.97125       -11.10809         5.25838
     2009.97299        -9.29685        10.02135
     2009.99144         1.16438         9.14103
     2009.99315        -2.92540         5.01022
     2009.99589        -8.49243         5.03468
     2009.99863       -11.28047         5.03287
     2010.00410       -12.42355         5.08449
     2010.00684        -8.89258         5.08540
     2010.00958        -4.38162         5.09626
     2010.01230        -8.75067         5.10985
     2010.01785        -2.85869         5.29551
     2010.02053        -6.59877         5.12343
     2010.02327       -11.46981         5.19408
     2010.02564       -10.65911         6.22293
     2010.05170        14.66756         9.54406
     2010.05272         0.46530         7.46734
     2010.07088        -6.23069         9.79584
     2010.07255        -3.08949         5.17596
     2010.07529        -4.08853         5.15513
     2010.07802        -2.93157         5.03106
     2010.08076        -4.48661         4.99573
     2010.08285        -7.78711         7.43201
     2010.08883         3.68918         5.60797
     2010.09814        11.31685         8.67099
     2010.09899        -1.17655         9.49878
     2010.11088        -8.36002         5.30910
     2010.11362         1.13494         5.11981
     2010.11635        -1.72910         5.05913
     2010.11909         2.13086         5.02109
     2010.12183        -1.46917         4.98577
     2010.12457         3.16379         4.97490
     2010.12701        -5.22746         6.23652
     2010.13377         4.98538         8.88291
     2010.13552         0.40264         5.02381
     2010.13826         6.35760         4.99845
     2010.16938         1.25190         9.22345
     2010.17111        -0.48486         4.97943
     2010.17308        -2.38445         7.82236
     2010.19575        -1.13220         5.00570
     2010.19849        -2.17723         4.99936
     2010.20123         0.73073         4.98215
     2010.20397        -2.79031         5.10804
     2010.20670        -5.02935         5.07091
     2010.20944         0.24261         4.94230
     2010.21218         0.05558         4.98849
     2010.21492         0.61054         5.02653
     2010.21765        -4.04850         5.09808
     2010.21985        -5.55793         6.74641
     2010.22681         2.02906         9.16096
     2010.22861        -3.96565         5.14879
     2010.23060       -13.14022         8.29422
     2010.25051        -6.72795         5.31997
     2010.25325         0.76201         5.19951
     2010.25570        -1.44823         5.64511
     2010.26239        -9.42844         9.22526
     2010.26325        -0.59382         9.71342
     2010.30013        -0.58239         5.84255
     2010.30253         7.18133         5.14879
     2010.30527         6.48629         5.13340
     2010.30800         2.88125         5.04373
     2010.31074        -7.46879         5.17506
     2010.31348        -0.47282         4.95860
     2010.31622        10.91514         5.09355
     2010.31895        -3.97290         5.33084
     2010.32169         7.87606         5.06457
     2010.32443         1.55102         5.16691
     2010.32717         2.50399         6.65132
     2010.32991         4.41495         5.02472
     2010.33264         2.38891         4.97490
     2010.33497         4.36258         6.05266
     2010.34683         3.30008         6.07983
     2010.34907         1.20068         4.94864
     2010.35181         0.94665         4.98124
     2010.35455        -0.19239         4.98487
     2010.35728        -1.11843         5.03196
     2010.36002         2.37153         5.03740
     2010.36276         1.83449         4.94864
     2010.36550         1.07046         5.25114
     2010.36824         1.48442         5.11891
     2010.37097         6.94838         5.02562
     2010.37371        -2.50766         5.06547
     2010.37645         6.66731         4.97581
     2010.38280         1.77985         9.63282
     2010.39377         2.53672         9.37560
     2010.39525        -5.84522         5.76375
     2010.41842        -7.93362         9.18722
     2010.41940        -1.48491         8.82405
     2010.46954         0.73002         4.94683
     2010.47227        -5.67802         4.92600
     2010.47402        -1.69177        10.51857
     2010.48961        -3.83060         8.84125
     2010.49144         1.30372         7.25903
     2010.49418        -1.46532         4.94049
     2010.49692        -2.46336         4.95679
     2010.49965        -3.20740         4.93868
     2010.50239         0.42056         4.99936
     2010.50513        -2.74347         4.92509
     2010.50787        -2.47051         4.93052
     2010.51060        -2.46555         4.89973
     2010.51334        -2.87359         4.92147
     2010.51502        -3.54039        12.40329
     2010.51882         0.04034         5.01294
     2010.52156         0.45630         5.18049
     2010.52429         7.15326         4.97400
     2010.52703        -1.92778         5.02109
     2010.52977        -1.00081         4.94683
     2010.53251        -7.90085         4.93596
     2010.53485         6.04283         5.86609
     2010.54720        -6.81532         9.65274
     2010.54893        -3.61008         4.94502
     2010.55167        -8.46212         4.99664
     2010.55441         5.30584         4.98849
     2010.55715        -4.03519         4.93596
     2010.55989        -4.48823         4.92509
     2010.56262        -0.49127         4.96766
     2010.56536        -3.52031         5.00841
     2010.56810         3.10466         4.94320
     2010.57084        -4.33838         4.92962
     2010.57357        -4.12742         5.09536
     2010.57631        -3.02846         5.06728
     2010.57905        -5.62350         4.93596
     2010.58179         0.36147         4.91151
     2010.58453        -3.79257         4.92962
     2010.58726        -5.69561         5.00660
     2010.59000        -1.95865         5.07091
     2010.59274         0.60131         4.93052
     2010.59548         2.49128         4.94683
     2010.59822         8.36624         4.96222
     2010.60095         2.10420         4.92871
     2010.60369         0.32316         4.94320
     2010.61807        -7.51953         7.14672
     2010.62012        -1.68106         4.91513
     2010.62286        -0.42610         5.00751
     2010.62559         5.49186         4.97581
     2010.66666         3.54029         4.90607
     2010.66940         3.93226         4.91241
     2010.71137        12.95033         9.04865
     2010.71321        -5.66635         5.03287
     2010.71964         8.48226         9.58753
     2010.72142         8.22454         5.00932
     2010.72416         7.68550         5.08811
     2010.72689         0.87946         5.06185
     2010.72963         2.44042         4.98758
     2010.73237         1.53938         4.96766
     2010.73511        -3.00765         5.12887
     2010.73785         2.19831         5.02381
     2010.74058         3.20127         5.08177
     2010.74332         6.01123         4.89701
     2010.74511        20.39151         8.60125
     2010.75794        -8.91329         9.89365
     2010.79785        19.51431         8.21815
     2010.82379        -3.25610        11.12085
     2010.82508         0.12183         5.74020
     2010.83458        -4.23536         9.07945
     2010.83641        -0.03805         5.72390
     2010.83915        -1.66109         4.95045
     2010.84139        -5.18649         6.03364
     2010.86072       -10.59063         5.64601
     2010.89117        -3.63881         5.15151
     2010.89390         4.76315         4.97671
     2010.89664         1.92911         5.15151
     2010.90492        -6.07795         5.10260
     2010.91131        13.82163         8.92820
     2010.91307         5.74689         7.04982
     2010.91581        -4.79815         4.87347
     2010.91854         2.15281         4.89701
     2010.92128        -5.48623         4.91241
     2010.92402        -3.74527         4.91875
     2010.92676         3.13770         4.93596
     2010.92950         5.07166         4.91966
     2010.93223        -7.29438         4.94230
     2010.93486        -4.39750         5.36435
     2010.95148         4.62441         5.43589
     2010.95414         1.83732         4.92418
     2010.95687         1.40328         4.86622
     2010.95961        -0.74176         4.98305
     2010.96235        -0.89279         5.06819
     2010.96509         2.92717         4.90788
     2010.96783        -1.39687         4.89701
     2010.97056        -0.30091         4.93415
     2010.97272         7.30463        11.37263
     2010.97607        20.65404        13.85963
     2010.97793         2.42437         8.27249
     2010.98715       -11.82902         9.41817
     2010.98959        -6.53728        12.57628
     2010.99225       -10.83836        14.49179
     2011.00839         2.89220         6.49011
     2011.01262         1.21623         8.82586
     2011.01437        -7.99851         7.94644
     2011.02206        -5.63600        10.18709
     2011.02556       -10.62549         8.98797
     2011.02880       -11.78717         9.65365
     2011.03097        -9.20262         6.49554
     2011.03353        -3.99678         8.81861
     2011.03631         6.21221        13.33162
     2011.03894         0.45710        12.79636
     2011.04636       -10.64558        11.41973
     2011.05096         0.42671         9.20353
     2011.05270        -0.14904         8.35219
     2011.05544        -0.60808         8.51068
     2011.05817        -1.80912         4.85354
     2011.06368        10.50883         8.41377
     2011.06639         1.73377         6.16134
     2011.07282         0.00638         8.47083
     2011.07460        -3.32635         8.24169
     2011.07793         7.46404         7.65572
     2011.08376        -1.62978         8.35853
     2011.08555        -6.38750         5.09626
     2011.08829        -1.38354         5.01294
     2011.09103        -3.28557         7.60228
     2011.09377        13.55439         6.39410
     2011.09568       -14.86924         7.90297
     2011.10297        -0.77502         9.19719
     2011.10472        -1.44476         4.85807
     2011.10706        -4.80009         5.92677
     2011.11110         0.56881         8.22901
     2011.12211        10.97570         9.84294
     2011.12375        -8.15212         5.21944
     2011.12712        19.25129        16.31674
     2011.12936         0.32690         4.85354
     2011.13210        -0.08714         5.93402
     2011.13447        -5.34444         6.20753
     2011.13736        -9.82737        12.48299
     2011.14343         3.96698         7.65028
     2011.14677        -3.79563         9.37379
     2011.14852        -0.63037        10.02498
     2011.15126         5.29759         4.85173
     2011.15344         2.04616         9.36655
     2011.15944         2.43846         9.99781
     2011.16810        -1.31434         8.70993
     2011.16993       -17.19103         8.30237
     2011.17619        -4.20354         8.72804
     2011.17864         0.72021         5.26382
     2011.18084         0.48379         6.31078
     2011.18442       -15.19964         6.80528
     2011.19218         4.64092        10.53306
     2011.19459        -2.89136        11.25942
     2011.19858         9.25751        10.86726
     2011.20145        -3.61344         8.34947
     2011.20328        -3.95213         5.05551
     2011.20602         2.69484         5.01566
     2011.20876        -0.81920         4.93686
     2011.21149        -8.87224         5.00117
     2011.21423         0.30772         4.93234
     2011.21595        -4.47005         9.89547
     2011.22061        10.55229         8.35671
     2011.22245        -3.33539         6.13780
     2011.22518        -0.98243         9.95705
     2011.22891         4.18124         9.85018
     2011.23728        19.13324        12.63515
     2011.23887        -0.40562         6.88136
     2011.24435        -5.56169         9.11658
     2011.24697         2.24419         6.59335
     2011.25028        -0.05945        10.24415
     2011.25223        -8.57005         6.86144
     2011.25549        -1.54971         9.84837
     2011.25804         1.03612         6.92393
     2011.26078        -3.27992         8.45906
     2011.26351         6.64704         5.99108
     2011.26625        -1.92600         4.89430
     2011.28768       -15.67364         7.68651
     2011.29361         1.95061         8.16471
     2011.29926         8.36466        21.29255
     2011.30209         5.51569         9.08126
     2011.30416       -10.49083        11.29384
     2011.31021       -17.38149        18.14259
     2011.31279        -0.06564         7.30069
     2011.31553         1.84532         6.91034
     2011.31801        -0.44690         5.83983
     2011.32100        21.44024         9.59297
     2011.33255         0.96352         8.34494
     2011.33541        -5.52044        17.35737
     2011.33745        -1.53497         6.17312
     2011.34017        -0.86902         5.08268
     2011.34291         2.48294        10.97051
     2011.34519        13.51258         8.57498
     2011.35124         0.85692         6.78898
     2011.35395        -4.09515         8.74978
     2011.35663       -13.89523        10.35646
     2011.37577        -5.25151         4.98487
     2011.37850        -3.88055         4.94411
     2011.38124        -3.85059         4.97853
     2011.38309        -9.65226        10.22604
     2011.39060         2.45912        12.55454
     2011.39219         5.00026         4.95136
     2011.39493        -3.31278         4.97128
     2011.39767        -4.39481         4.99755
     2011.40041        -6.55785         5.07996
     2011.40223        -9.29954         9.74422
     2011.43326       -10.92431         4.96766
     2011.43600        -8.26934         4.95226
     2011.43874        -7.17138         5.35167
     2011.45060       -12.41288         8.59581
     2011.45243        -7.11357         4.98758
     2011.45516        -6.22861         4.99302
     2011.47433       -10.40687         5.05551
     2011.47707         2.44309         5.02653
     2011.47900         4.62147        10.96598
     2011.50809        -5.74668         8.52789
     2011.50992        -2.58837         5.08811
     2011.51266        -0.54340         5.12706
     2011.51540         0.19356         4.99211
     2011.51733        -0.03505        10.81383
     2011.52470         6.40623        11.58637
     2011.52635        -4.25559         5.05189
     2011.52908         2.99537         5.03377
     2011.53182         4.09033         5.03921
     2011.53456         3.49229         6.13961
     2011.53730        -6.96074         5.50020
     2011.54004       -11.04578         5.08087
     2011.54251        -5.78701         5.57175
     2011.55192         0.49074         8.87114
     2011.56562        10.60955         8.94541
     2011.56741         4.16084         4.96132
     2011.57015        -4.72120         5.06094
     2011.57289         4.23476         5.55816
     2011.57563         4.15873         5.05460
     2011.57837        -0.66031         4.99936
     2011.58110        -5.83335         5.03287
     2011.58384        -1.18539         5.05370
     2011.58626        -2.74466         5.89145
     2011.60295        -0.47070         5.09808
     2011.62309         6.78574        10.04037
     2011.62491        -1.35696         5.12977
     2011.62765         1.89301         5.10713
     2011.63039         0.93397         5.10804
     2011.63312         1.78393         5.05460
     2011.63586         2.30189         5.03830
     2011.63860         4.63286         5.13702
     2011.64134         5.69282         5.20585
     2011.64407         2.13878         5.28012
     2011.64681         2.18174         5.14517
     2011.64955         2.49670         7.82961
     2011.65867        -3.40476         9.36293
     2011.66050        13.25255         5.28917
     2011.66324         4.35652         5.11528
     2011.66598         3.07248         5.15151
     2011.66872         8.10044         5.18502
     2011.67145         6.18040         4.99211
     2011.67419         9.25736         5.00207
     2011.67693        13.95233         5.02290
     2011.67967         0.82029         5.07996
     2011.68240         0.57125         5.13340
     2011.68514         2.31621         5.14155
     2011.68788         7.01817         6.62958
     2011.69062         6.03314         5.12887
     2011.69336         7.70010         5.11438
     2011.69609         4.82706         5.11800
     2011.69883        -2.92498        13.02369
     2011.70157         4.40799         5.05189
     2011.70431         9.46295         5.13159
     2011.70705         6.16291         7.40122
     2011.70978         4.76087         5.21310
     2011.71252         4.80983         5.26291
     2011.71509         7.85667         5.64782
     2011.76454         3.23411         5.12525
     2011.76728         4.49108         5.09808
     2011.77002         6.46704         5.19498
     2011.77275        -3.46600         5.30729
     2011.77549         6.62796         5.32178
     2011.77823         1.00393         5.18049
     2011.78097         9.98889         5.12253
     2011.79301        -9.57848        10.89262
     2011.79466         0.86670         5.03196
     2011.79739         7.25566         5.00570
     2011.80013         8.20662         5.03921
     2011.80287         4.61658         5.10170
     2011.80561         3.12355         5.03830
     2011.80835         3.92951         5.00751
     2011.81108         6.75347         5.14970
     2011.81293         9.99680         8.61483
     2011.82019         3.33200         8.95446
     2011.82203         0.50332         5.29914
     2011.82477         2.86328         5.07725
     2011.84394        -0.08198         4.97943
     2011.84668         2.03398         4.99030
     2011.84941        -1.94906         4.98939
     2011.85215        -9.98510         5.01838
     2011.85489        -5.97913         5.09445
     2011.85763        -2.80717         5.15423
     2011.86036         9.44979         4.98305
     2011.86310         3.72475         5.10442
     2011.86584         7.40871         4.99573
     2011.86858         8.30368         5.00932
     2011.87132         2.93764         4.96675
     2011.87405        -5.32640         5.01204
     2011.90143        -4.88078         5.01294
     2011.90417         4.60418         5.20404
     2011.90691        -6.25585         5.07815
     2011.90965         3.10511         4.97581
     2011.91238         2.36007         5.33989
     2011.91512         1.59003         5.15513
     2011.91786        -2.46901         5.11166
     2011.92060        -5.08504         5.00388
     2011.92334        11.50992        13.88499
     2012.09034        10.43161         7.12861
     2012.09308         6.48357         4.96132
     2012.09486         2.83785         8.83672
     2012.10025         2.97271         9.32217
     2012.10517         9.30824        13.89223
     2012.10572       -10.30937         9.67086
     2012.11046         8.57003         9.25515
     2012.11209         2.15519         5.27378
     2012.14882        17.95252         9.81848
     2012.15058        -3.00222         4.98124
     2012.15701         7.33139         9.37017
     2012.15879         2.30566         5.06366
     2012.16153         2.11663         5.00660
     2012.16427         1.07959         5.02562
     2012.16700         2.61355         5.06728
     2012.16974         3.85251         4.97943
     2012.17248        -2.16153         5.04826
     2012.17522        -2.83556         4.98124
     2012.17796        -1.76160         5.00298
     2012.18620        -1.73269         5.30729
     2012.25278         9.66102         8.48804
     2012.25462        -4.61366         5.20223
     2012.25726        -3.83077         5.22578
     2012.26374        12.54688         8.33679
     2012.26557        -3.16681         4.93324
     2012.26830        -0.11185         5.04736
     2012.27104         1.32111         5.10442
     2012.27378         7.14507         4.94502
     2012.27652         3.21704         5.02019
     2012.27926         6.56400         5.04192
     2012.29113         8.24651         8.65468
     2012.29295        -3.34419         5.47212
     2012.29540         5.17257         5.75741
     2012.31759         2.17647         4.94502
     2012.32032        -0.88857         8.25528
     2012.32306         1.34539         4.92328
     2012.32580        -0.84665         4.91332
     2012.32854        -6.22968         5.08992
     2012.33128         2.17728         5.09445
     2012.33375         4.99805         5.81719
     2012.33562        -9.50761        12.46035
     2012.34606        -3.23012        10.49321
     2012.34770        -3.22595         5.01656
     2012.35044         1.00201         4.95679
     2012.35318        -2.13002         4.90698
     2012.35592         2.77894         4.89249
     2012.38695        -9.33282         8.72080
     2012.38877        -6.18252         5.12706
     2012.39151         2.19045         5.06185
     2012.41055         3.66610         5.19951
     2012.42535         6.91370         9.52866
     2012.42710        -5.83905         4.99755
     2012.42984         2.94892         4.90879
     2012.43231        -0.36731         5.56812
     2012.44104        -7.70506         5.42140
     2012.44353        -5.50227         4.98396
     2012.44532         3.76201         9.70165
     2012.44990         1.07730         8.12214
     2012.45174        -1.64339         4.93596
     2012.45448        -1.68142         4.94683
     2012.45722         0.61054         4.96494
     2012.45995         1.97050         5.06366
     2012.46269         5.59446         4.96403
     2012.46543        -2.56658         5.02472
     2012.46817         2.30539         4.92056
     2012.47091        -2.20265         5.00570
     2012.47364        -0.05569         4.98305
     2012.47638        -4.81373         4.98668
     2012.47912         2.12624         4.93868
     2012.48186         4.04620         4.92328
     2012.48459        -0.98784         4.94773
     2012.48733        -2.19688         5.34623
     2012.49007         3.04008         4.97943
     2012.49196        -3.14556         8.29241
     2012.52388        -1.12569         9.24790
     2012.52566        -2.89441         4.96222
     2012.52840        -1.06045         4.94411
     2012.53114         0.42552         4.95770
     2012.53388         1.48548         4.96856
     2012.53661         3.85844         5.00207
     2012.53935         2.83240         5.00207
     2012.54209         4.36136         4.94139
     2012.54483         4.42633         4.98487
     2012.54757         1.84829         4.92962
     2012.54998         5.70802         5.62880
     2012.57221         0.24795         4.85354
     2012.57494         3.33291         4.90064
     2012.57764         1.40585         5.52193
     2012.58427         8.18159        13.08889
     2012.59775         0.78726         9.24338
     2012.59958        -0.81343         5.01294
     2012.60232         4.03953         5.17234
     2012.60421         7.02989         7.64485
     2012.61965         9.13495         9.17183
     2012.62083        14.69479         7.07880
     2012.62796         8.63190        10.28944
     2012.62970        10.48715         5.10894
     2012.63244         6.56912         5.03468
     2012.63518         4.01608         4.91694
     2012.63791        11.29904         4.93777
     2012.64065        10.65000         4.94864
     2012.64339        16.02296         4.91332
     2012.64613        13.27793         4.90788
     2012.64887         5.95789         4.91241
     2012.65160        13.10985         4.96222
     2012.65434         4.82981         4.95770
     2012.65708        10.85977         5.10985
     2012.65982        10.87174         5.07272
     2012.66256         9.17370         4.93324
     2012.66529         7.81066         4.94320
     2012.66803         8.80062         4.94502
     2012.67077         4.91859         4.93777
     2012.67351         9.14155         4.91060
     2012.67624         9.61251         4.91422
     2012.67898         9.93147         4.93415
     2012.68172         9.91243         4.89249
     2012.68446         7.72840         4.94864
     2012.68679        10.60907         5.79817
     2012.71199         8.22913         5.20766
     2012.71369        10.40935         8.24803
     2012.73384         8.95179         5.21310
     2012.73591         4.07827         6.38142
     2012.75564         8.43241         4.86350
     2012.75838         7.04337         4.91513
     2012.76112         9.89234         4.87528
     2012.76386        12.98130         4.89973
     2012.76659        11.05626         4.96313
     2012.76933        10.71022         4.98758
     2012.77207         9.34619         4.98034
     2012.78954         6.89870        10.64175
     2012.79123        -5.85708         5.23755
     2012.79397         4.31788         4.97943
     2012.79671         5.43684         5.01204
     2012.79945        10.10681         5.10079
     2012.80219         8.96777         5.16781
     2012.80492         8.62873         5.03830
     2012.80766         5.04569         5.04826
     2012.81040         8.89766         5.00026
     2012.81314         1.55562         5.03468
     2012.81587         1.80658         4.99302
     2012.81861         4.15754         5.11347
     2012.82135         9.03550         5.09898
     2012.82409         0.92647         5.05460
     2012.82683         3.67043         5.17144
     2012.82956         8.25339         5.02381
     2012.83230         2.98535         6.83064
     2012.83504         3.23931         5.05732
     2012.83688         7.58963         8.63023
     2012.85106        -1.49220         6.44935
     2012.85473        -7.63258        12.54005
     2012.87337         0.68878         5.01385
     2012.87611         2.77875         5.00660
     2012.87885         0.60871         4.99936
     2012.88158         5.85267         4.96585
     2012.88394         4.59936         6.22836
     2012.88815        25.50838        10.98047
     2012.88980        -2.56844         5.15785
     2012.89253        -4.48948         5.00660
     2012.89527        -2.63052         5.03649
     2012.93360         2.44895         5.02834
     2012.93634        -0.42509         4.94320
     2012.93908         0.26888         4.99392
     2012.94182         1.41284         4.91966
     2012.94455         7.51480         4.91241
     2012.94729         8.05176         5.07091
     2012.95003         1.94672         5.01747
     2012.95175        10.60095        10.52038
     2012.96145        11.63391         6.33614
     2012.96372         3.66454         5.86156
     2012.96561         6.94089         8.10403
     2013.00308        15.18775         9.87554
     2013.00479         6.99497         4.94139
     2013.00641        -4.48387        11.62713
     2013.02123         8.65375         4.95860
     2013.02353        -2.84660         6.07530
     2013.03592         9.76228         9.77682
     2013.03764         0.37951         4.95045
     2013.05427         5.99043        23.71162
     2013.05965       -10.36371        15.65016
     2013.06234        -4.54779         5.65054
     2013.07977        -0.98929        11.42878
     2013.08145         8.32391         4.94592
     2013.08356        -7.11858         6.70294
     2013.13894         8.13211         4.96856
     2013.14152         7.11896         5.30367
     2013.14508         4.50351         6.97917
     2013.14715        -4.20800         5.21038
     2013.14989        -5.00304         4.95136
     2013.15263        -2.63608         5.00479
     2013.15537       -12.57011         4.87618
     2013.15811        -9.22915         4.95770
     2013.16084        -3.63919         4.97943
     2013.16282         0.74422         7.84772
     2013.17825        -5.66072         9.72520
     2013.17970        -1.22467         5.66956
     2013.20753         7.13627         5.24027
     2013.21013         4.05513         4.88796
     2013.21261         3.69691         9.22073
     2013.24024        -3.53429         5.20766
     2013.24298         0.85467         4.96856
     2013.24572         7.63164         5.05641
     2013.24745         7.89188         9.82663
     2013.25210         1.37221         9.30677
     2013.25393         2.16652         5.02290
     2013.25651        -2.56363         5.62065
     2013.26214         1.32041         5.06275
     2013.26488        -2.69863         5.13068
     2013.26762         1.95333         4.97219
     2013.27036        -1.10370         4.99211
     2013.27310        -0.58474         5.14427
     2013.27583         1.99222         5.03558
     2013.27857         1.38518         6.05085
     2013.28131        -0.34286         5.08177
     2013.28405         2.92911         4.98305
     2013.28679         1.50007         4.99121
     2013.28952         1.30903         5.02109
     2013.29138         7.74336         8.88110
     2013.35249        -8.84584         5.03468
     2013.35467        -8.87228         6.67215
     2013.37253        -2.07248         8.22448
     2013.37440         2.17286         4.96856
     2013.40566        -6.65174        12.08631
     2013.40716        -1.43866         5.35076
     2013.41625        -5.62514         7.56968
     2013.41820        -1.17075         4.98396
     2013.42094         1.53421         5.00479
     2013.42368         0.71418         5.05098
     2013.42642         1.90914         5.09264
     2013.42915         8.39310         4.97762
     2013.43142         4.90073         6.40044
     2013.44381         0.04161         8.97711
     2013.46574         7.61232        10.27947
     2013.48482         1.83800         8.51611
     2013.48665        -1.12769         5.05007
     2013.48939        -2.48073         4.95860
     2013.49212        -2.35977         4.99030
     2013.49486         2.57019         4.92600
     2013.49760        -1.18185         5.13249
     2013.50034         6.91412         5.56178
     2013.50308         2.84408         4.95860
     2013.50581         7.15504         5.07362
     2013.50855        -0.57000         4.97671
     2013.51129         5.48397         4.98758
     2013.51403         3.26293         4.91694
     2013.51676         4.94789         5.06185
     2013.51950        -1.35915         4.94592
     2013.52224         5.49681         4.97309
     2013.52498         1.54878         5.05098
     2013.52772         2.12974         4.97400
     2013.53768         1.16188         9.99509
     2013.54524        11.43030        13.23018
     2013.54688         1.91947         4.96222
     2013.54962         6.85244         4.91694
     2013.55236         1.42540         4.95498
     2013.55509         5.75136         4.96856
     2013.55783         7.06632         4.93143
     2013.56057         5.73428         5.24389
     2013.56331         0.82825         5.08902
     2013.57700         4.91606         4.95498
     2013.62170         9.63709         9.63010
     2013.62354         5.48441         5.08268
     2013.62602        15.96619         5.50744
     2013.63175         8.07430         5.02562
     2013.63420        11.92805         5.70850
     2013.64085        14.09482         9.13922
     2013.64272         8.02116         5.10351
     2013.64518        10.75992         5.45582
     2013.69015         6.06115         9.12835
     2013.69199        14.57247         4.99121
     2013.72853         2.56166        11.55739
     2013.73018         4.94584         5.24751
     2013.74301         4.29004        11.83996
     2013.74967         2.72481         5.54639
     2013.75496        -0.88040         4.96675
     2013.75770        -3.94944         4.98034
     2013.76043        -4.54548         4.96585
     2013.76317        -1.27152         4.92147
     2013.76591        15.93145         5.09989
     2013.76865         3.70241         5.12887
     2013.77138         5.00737         4.98215
     2013.78781        -2.36986         4.95226
     2013.79055         1.84910         4.94592
     2013.79329         0.76607         4.95136
     2013.79603         0.87103         4.99664
     2013.79876        -1.04301         4.94049
     2013.80150         5.22595         5.07543
     2013.80424         5.28492         5.00207
     2013.80698         4.65188         4.95498
     2013.80971         6.40684         5.00660
     2013.81245         6.27680         4.97128
     2013.81434         0.35516         8.16199
     2013.86546         4.17479         9.44987
     2013.86721         1.30304         5.00479
     2013.92021         0.51903         9.26873
     2013.92143         2.39190         6.79623
     2013.94483        10.54367         8.67280
     2013.96961        18.62543        10.90802
     2013.97125        11.40261         5.03015
     2013.97399         3.00857         4.99573
     2013.97672        -1.85247         4.95317
     2013.97946         1.17549         4.98034
     2013.98220        -1.54755         5.01113
     2013.98494         0.20942         4.95407
     2013.98767        -6.02662         5.00117
     2013.99041        -6.81566         5.05189
     2014.00794        11.41090        11.64343
     2014.00958         1.80608         4.93143
     2014.01232        -1.09196         5.00207
     2014.01505         1.62100         5.05913
     2014.01779        -2.60204         5.20042
     2014.02053        -1.45808         4.97219
     2014.02327         0.87689         5.28555
     2014.02600        15.78185         6.92755
     2014.02874        10.20881         5.20766
     2014.03148         4.14877         5.03287
     2014.03422         4.71074         4.98758
     2014.03696        -1.20930         4.97943
     2014.03969         2.49466         5.00117
     2014.04243         0.73562         5.09355
     2014.04517         5.14158         5.12162
     2014.04791         2.41655         4.97853
     2014.05065         3.57651         4.95770
     2014.05338         4.44247         4.96403
     2014.36671       102.91802        28.14402
     2014.36824        98.61112         7.06340
     2014.37097       110.22708         6.92755
     2014.37371       107.38404         7.11140
     2014.37645       108.82700         6.99457
     2014.37919       101.37097         6.76996
     2014.38193       101.62193         6.73736
     2014.38466       102.61489         6.84694
     2014.38740       104.41085         6.81434
     2014.39014       109.73381         6.93480
     2014.39288       105.58678         6.75547
     2014.39561       111.46574         6.88770
     2014.39835       114.24170         6.87230
     2014.40109       107.95566         7.06069
     2014.40383       107.02563         6.90038
     2014.40657       105.01759         6.72196
     2014.40930       107.19055         6.75638
     2014.41204        97.25451         6.80166
     2014.41478       104.52947         6.82430
     2014.41752       107.06044         6.83608
     2014.42026       104.04640         6.73917
     2014.42299       106.03136         6.77177
     2014.42573       102.36632         6.79532
     2014.42847       111.65528         6.93842
     2014.43121       104.40325         6.90310
     2014.43394       106.45821         6.82249
     2014.43668       105.75417         6.83789
     2014.43942       111.69113         6.81162
     2014.44216       104.46410         6.83517
     2014.44490       110.51806         7.57783
     2014.44763       103.04002         7.19291
     2014.45037       101.23398         6.83427
     2014.45311       107.38594         6.74279
     2014.45585       106.53191         6.84513
     2014.45859       103.20387         6.73555
     2014.46132        98.58383         6.79985
     2014.46406       101.75979         6.80981
     2014.46680       101.45476         6.90763
     2014.46954       103.01772         6.72830
     2014.47227       107.82368         6.79532
     2014.47501       103.91564         6.86325
     2014.47775       102.57060         6.89585
     2014.48049       102.19857         6.85872
     2014.48323        99.50953         6.80347
     2014.48596       116.02149         7.12499
     2014.48870       104.93345         6.86325
     2014.49418       105.89938         6.83608
     2014.49692        97.21334         6.87140
     2014.49965        96.80330         7.10778
     2014.50239       101.31626         6.92664
     2014.50513       103.58623         7.01178
     2014.50787        99.59119         7.30069
     2014.51060        99.56415         6.99095
     2014.51334       107.63011         7.02174
     2014.51608       111.00807         7.11865
     2014.51882       103.09304         7.10959
     2014.52156       114.91800         7.32062
     2014.52429       108.89996         7.15850
     2014.52703       108.55392         7.09601
     2014.52977       110.42188         7.26899
     2014.53251       104.62185         6.99457
     2014.53525       104.52681         7.10144
     2014.53798       109.38177         7.00544
     2014.54072       112.92373         7.13948
     2014.54346       118.95270         7.11684
     2014.54620       106.58166         7.09510
     2014.54893       118.14962         7.60591
     2014.55167       106.42458         7.20016
     2014.55441       101.13354         7.34326
     2014.55715       100.09751         7.53254
     2014.55989       108.57847         7.11412
     2014.56262       101.82543         7.00182
     2014.56536        98.73639         7.14039
     2014.56810        98.28535         7.05163
     2014.57084        99.23832         7.11140
     2014.57357       105.14928         7.22099
     2014.57631        99.19424         7.08333
     2014.57905       103.47720         7.16846
     2014.58179       113.18517         7.36318
     2014.58453        97.67013         7.19925
     2014.58726       100.45909         7.65572
     2014.59000       107.83905         7.47639
     2014.59274       112.39801         7.67836
     2014.59548       117.75198         7.64213
     2014.59822       101.94794         7.78614
     2014.60095        97.80490         7.70734
     2014.60369       103.29786         7.30703
     2014.60643       100.54382         7.35956
     2014.60917       102.45879         7.57511
     2014.61190       124.18875         7.73451
     2014.61464       101.45971         7.39488
     2014.61738        96.30667         7.73995
     2014.62012       110.38364         7.31246
     2014.62286       115.74160         7.36862
     2014.62559       110.51256         7.23910
     2014.62833        99.54752         7.44017
     2014.63107       104.44048         7.49541
     2014.63381       109.28245         7.45194
     2014.63655       109.95241         7.48907
     2014.63928       106.48437         7.15669
     2014.64202       109.15433         7.27443
     2014.64476       108.21329         7.44832
     2014.64750       110.74926         7.31065
     2014.65023       103.98722         7.37043
     2014.65297       109.14718         7.13133
     2014.65571       110.39214         7.15850
     2014.65845       116.92911         7.21556
     2014.66119       107.22907         7.55881
     2014.66392       123.52003         7.51624
     2014.66666       104.80099         7.27986
     2014.66940       108.87895         7.22371
     2014.67214       103.71492         7.56515
     2014.67488       110.71688         7.40213
     2014.67761       107.24584         7.27533
     2014.68035       107.20780         7.45375
     2014.68309       101.38776         7.32605
     2014.68583        99.78973         7.34145
     2014.68856       102.79469         7.45103
     2014.69130       112.04465         7.64757
     2014.69404       104.59261         7.48726
     2014.69678       103.35858         7.45918
     2014.69952       106.26654         7.25722
     2014.70225       104.59850         7.32062
     2014.70499       104.70546         7.32514
     2014.70773       107.00142         7.29073
     2014.71047       116.74839         7.55519
     2014.71321       113.13435         7.47186
     2014.71594       111.63831         7.58145
     2014.71868        99.31527         7.30522
     2014.72142       103.80423         7.42839
     2014.72416       111.48720         7.56153
     2014.72689       107.69616         7.94191
     2014.72963       107.26012         7.69919
     2014.73237       107.41008         7.76259
     2014.73511        94.65005         7.35594
     2014.73785       100.14601         7.22280
     2014.74058       107.71997         7.58598
     2014.74332       109.40493         8.01618
     2014.74606       107.26089         7.75715
     2014.74880       103.20286         7.44832
     2014.75154       104.17482         7.32152
     2014.75427       104.75478         7.25722
     2014.75701       106.64774         7.46734
     2014.75975       104.41870         7.46552
     2014.76249        90.74367         7.44017
     2014.76522        98.25163         7.26446
     2014.76796       112.43159         7.42296
     2014.87200        99.38115         7.66296
     2014.87474        94.70012         7.61677
     2014.87748        94.41908         7.60228
     2014.88021       103.76504         7.67745
     2014.88295       109.32700         7.93829
     2014.88569        86.02596         7.64213
     2014.88843       107.80693         8.11490
     2014.89117       113.75489         8.26071
     2014.89390        92.26285         7.64575
     2014.89664       110.24681         7.83414
     2014.89938       106.92677         7.60862
     2014.90212       101.06074         7.65572
     2014.90485        93.05370         7.97995
     2014.90759        93.42266         8.13301
     2014.91033        97.67662         7.84500
     2014.91307       110.25459         7.63851
     2014.91581       100.80255         7.76078
     2014.91854       104.93251         7.66749
     2014.92128       104.09447         7.65572
     2014.92402        98.15243         7.71278
     2014.92676       112.85040         7.89935
     2014.92950        99.22036         7.79157
     2014.93223       102.08232         7.93014
     2014.93497       104.17428         7.96455
     2014.93771       105.19324         8.10856
     2014.94045        98.51621         8.05512
     2014.94318        95.52817         8.21271
     2014.94592       100.48313         7.71821
     2014.94866        97.64109         7.76712
     2014.95140        94.92006         7.56062
     2014.95414        93.77602         7.84500
     2014.95687       102.87798         8.02433
     2014.95961       101.23794         8.04788
     2014.96235        99.00890         7.77708
     2014.96509        92.84287         7.73813
     2014.96783        93.08383         7.76983
     2014.97056        94.74479         7.79881
     2014.97330        86.88375         7.87308
     2014.97604        87.92671         7.82417
     2014.97878       103.77868         7.64666
     2014.98151        98.71464         7.62130
     2014.98425        91.58260         7.67836
     2014.98699        97.72356         7.74629
     2014.98973        93.21153         7.74719
     2014.99247        94.34849         7.63217
     2014.99520        89.21545         7.63217
     2014.99794        97.21141         7.73451
     2015.00068        97.11037         7.69194
     2015.00342        89.96534         7.79791
     2015.00616        94.38730         7.72908
     2015.00889        90.01026         8.11127
     2015.01163        96.60422         8.02886
     2015.01437       100.66118         8.27611
     2015.01711       102.88515         8.07324
     2015.01984       108.62811         8.03520
     2015.02258       102.83807         8.51249
     2015.02532       107.82203         8.17739
     2015.02806        97.17000         8.12758
     2015.03080        96.99796         8.16924
     2015.03353        94.10492         8.07958
     2015.03627        97.84488         8.02524
     2015.03901       109.34484         8.29875
     2015.04175       106.57881         8.05241
     2015.04449       106.26877         8.27883
     2015.04722        97.89673         8.40834
     2015.04996       103.51869         8.14841
     2015.05270        97.04065         8.02342
     2015.05544        89.63762         7.99535
     2015.05817       102.87558         8.16833
     2015.06091       101.13054         8.15475
     2015.06365       101.02050         7.99897
     2015.06639        94.76347         7.88576
     2015.06913        97.07943         7.99988
     2015.07186        88.48839         7.92289
     2015.07460        98.13435         8.12214
     2015.07734        84.33331         8.01074
     2015.08008        94.81528         7.96999
     2015.08282        88.56724         7.91203
     2015.08555       107.89120         8.08139
     2015.08829        95.03616         8.29603
     2015.09103        99.05612         7.96003
     2015.09377       107.77109         8.24169
     2015.09650       105.96605         8.25799
     2015.09924       106.52001         8.30147
     2015.10198        98.13097         7.95369
     2015.10472        88.47594         7.89119
     2015.10746        95.88590         7.95821
     2015.11019        91.83786         7.81331
     2015.11293        98.19082         7.97905
     2015.11567        95.22878         8.10675
     2015.11841        89.35875         8.07595
     2015.12115        96.63971         7.98539
     2015.12388        95.13967         7.81693
     2015.12662        89.28563         7.92561
     2015.12936        97.08359         7.88667
     2015.13210        97.60556         8.12033
     2015.13483        79.68652         8.29422
     2015.13757        96.79048         8.10222
     2015.14031       101.66144         7.79248
     2015.14305        94.92141         7.85950
     2015.14579        94.10337         7.87851
     2015.14852        94.21533         7.89753
     2015.15126        94.14929         7.94010
     2015.15400        91.09625         7.89935
     2015.15674        97.30422         7.89029
     2015.15948        91.78918         7.88033
     2015.16221        97.56214         7.83866
     2015.16495        96.44710         7.94916
     2015.16769        99.17507         7.88304
     2015.17043        97.07803         7.84410
     2015.17316        94.71099         8.35581
     2015.17590        89.39395         8.34313
     2015.17864        89.05191         7.85225
     2015.18138        93.25688         7.88667
     2015.18412        98.40784         7.76983
     2015.18685        84.00080         8.08139
     2015.18959       101.78876         8.09588
     2015.19233        94.46672         7.80968
     2015.19507       101.16869         7.92380
     2015.19780        92.34065         8.01980
     2015.20054        91.17861         7.99354
     2015.20328        92.99757         7.87036
     2015.20602        85.73654         8.15022
     2015.20876        95.34350         7.87489
     2015.21149        89.51346         7.88938
     2015.21423        94.72542         8.37302
     2015.21697        95.34938         8.06509
     2015.21971       104.51035         8.03973
     2015.22245        95.92031         8.05512
     2015.22518        89.75827         7.96637
     2015.22792        88.41223         7.85497
     2015.23066        95.82219         7.86855
     2015.23340       100.75516         8.17196
     2015.23613        99.66112         7.97814
     2015.23887        83.32308         8.19097
     2015.24161        96.53804         8.14388
     2015.24435        93.73201         8.52698
     2015.24709        94.18397         8.36939
     2015.24982        94.10993         7.91746
     2015.25256        86.98089         8.03429
     2015.25530        87.66885         7.89482
     2015.25804        94.23282         7.92561
     2015.26078        99.07178         8.09407
     2015.26351        96.27874         7.93195
     2015.26625        99.14470         7.94010
     2015.26899        97.66666         7.87761
     2015.27173       104.28163         8.06237
     2015.27446       100.77359         8.03973
     2015.27720        97.55255         8.01618
     2015.27994        95.69651         7.97089
     2015.28268        92.65648         7.92561
     2015.28542        95.64644         8.33136
     2015.28815        94.01340         8.34585
     2015.29089        89.42236         7.85678
     2015.29363        94.58332         7.88667
     2015.29637        86.20629         7.81421
     2015.29911        99.58225         7.84229
     2015.30184       100.33621         7.85497
     2015.30458       100.80617         7.96184
     2015.30732        92.47313         7.94463
     2015.31006        89.77810         7.89210
     2015.31279        94.80506         7.91203
     2015.31553        86.12802         7.91384
     2015.31827        87.59198         7.94916
     2015.32101       103.21395         8.08863
     2015.32375        85.84491         7.96274
     2015.32648        91.35287         8.29603
     2015.32922        88.23383         8.51702
     2015.33196        83.64079         7.99988
     2015.33470        91.51076         7.87218
     2015.33744        93.42472         7.79066
     2015.34017        94.16968         7.82961
     2015.34291        90.39864         7.85497
     2015.34565        95.66860         7.80606
     2015.34839        89.49357         8.18192
     2015.35112        91.10253         7.84863
     2015.35386       107.47349         7.87036
     2015.35660        88.10545         7.64304
     2015.35934        88.19442         8.11580
     2015.36208        94.22238         8.06509
     2015.36481        92.95334         7.68832
     2015.36755        98.77430         7.69013
     2015.37029        97.23926         7.66296
     2015.37303        97.93323         7.64485
     2015.37577       100.63419         7.76259
     2015.37850        88.64315         7.78976
     2015.38124        96.45411         7.59957
     2015.38398        98.95907         7.73632
     2015.38672        95.81804         7.74900
     2015.38945       101.61500         8.00440
     2015.39219        95.73896         7.81602
     2015.39493        94.13892         7.92199
     2015.39767        92.78589         7.79610
     2015.40041        97.20585         7.85134
     2015.40314       107.84381         7.96818
     2015.40588        98.18177         7.99625
     2015.40862       102.60073         7.93376
     2015.41136       104.60570         7.96093
     2015.41410       100.82966         8.25166
     2015.41683        93.80762         7.82599
     2015.41957        94.29658         7.95821
     2015.42231       102.80554         7.81240
     2015.42505       100.85951         8.24622
     2015.42778       102.52647         7.86131
     2015.43052       102.26843         7.86674
     2015.43326        99.84639         7.84863
     2015.43600       104.31436         8.02252
     2015.43874       103.53932         8.10041
     2015.44147       101.25928         7.99716
     2015.44421        95.36624         7.92199
     2015.44695        99.58920         7.81512
     2015.44969        98.44717         7.80515
     2015.45243        92.76613         7.83957
     2015.45516       106.56309         7.87580
     2015.45790        94.27605         7.78795
     2015.46064       104.27101         8.01165
     2015.46338       112.71498         7.87761
     2015.46611       114.59194         7.85497
     2015.46885       108.11190         8.01708
     2015.47159       117.04686         7.82961
     2015.47433        99.81183         7.90387
     2015.47707       104.11579         7.85859
     2015.47980        98.49175         7.97995
     2015.48254       107.40771         8.09407
     2015.48528       101.00967         8.25437
     2015.48802       107.44764         8.09135
     2015.49076        96.80960         8.02071
     2015.49349       109.89356         7.98357
     2015.49623       105.25352         7.82780
     2015.49897        92.44349         7.90116
     2015.50171       112.90145         8.13301
     2015.50444       105.00141         7.96003
     2015.50718       102.03737         8.09044
     2015.50992       111.24533         8.07595
     2015.51266       101.73930         7.80968
     2015.51540        98.54826         8.11037
     2015.51813       126.00222         8.22539
     2015.52087       112.18518         7.96003
     2015.52361       112.07214         7.81421
     2015.52635       104.81111         7.94101
     2015.52908        95.60107         7.97905
     2015.53182       116.85403         8.06237
     2015.53456       108.79999         7.87670
     2015.53730       108.21496         8.04788
     2015.54004       110.96192         8.28245
     2015.54277       111.83088         8.32049
     2015.54551       107.07684         8.27883
     2015.54825       100.77380         8.19731
     2015.55099       109.28277         8.15022
     2015.55373       104.23973         8.28969
     2015.55646       116.42769         8.34132
     2015.55920       109.63265         8.39838
     2015.56194       108.00961         8.25799
     2015.56468       111.07058         8.23173
     2015.56741       110.62954         8.19460
     2015.57015       111.30650         8.32320
     2015.57289       111.43546         8.45272
     2015.57563       100.23243         8.18011
     2015.57837       108.22239         8.21362
     2015.58110       105.32435         8.32592
     2015.58384       113.16231         8.29966
     2015.58658       127.77727         8.66465
     2015.58932       106.86624         8.46811
     2015.59206       106.28020         8.37302
     2015.59479       121.30716         8.33769
     2015.59753       113.66012         8.30237
     2015.60027       123.28308         8.85574
     2015.60301       114.84205         8.54147
     2015.60574       119.12301         8.70268
     2015.60848       112.67297         8.34132
     2015.61122       121.89593         8.80321
     2015.61396       113.30690         9.03145
     2015.61670       109.43886         8.17196
     2015.61943       116.42182         8.21724
     2015.62217       111.73378         8.25618
     2015.62491       113.47774         8.31234
     2015.62765       124.41871         8.40834
     2015.63039       112.70767         8.33769
     2015.63312       108.61563         8.62570
     2015.63586       124.29459         8.32049
     2015.63860       113.48355         8.40472
     2015.64134       116.69252         8.42102
     2015.64407       109.74848         8.35490
     2015.64681       114.31944         8.93454
     2015.64955       111.92840         8.54691
     2015.65229       116.91137         8.28245
     2015.65503       121.69133         8.41106
     2015.65776       108.09829         9.17817
     2015.66050       127.24425         8.51793
     2015.66324       115.90521         8.21815
     2015.66598       121.26418         8.06690
     2015.66872       107.77214         8.44004
     2015.67145       107.91910         8.25256
     2015.67419       115.54206         8.20637
     2015.67693       113.56702         8.16109
     2015.67967       114.83199         8.25981
     2015.68240       102.17995         8.24532
     2015.68514       111.69891         8.25981
     2015.68788       106.31287         8.25437
     2015.69062       117.93084         8.36124
     2015.69336       101.20780         8.85484
     2015.69609       108.54876         8.26162
     2015.69883       117.29572         8.60034
     2015.70157       113.62868         8.46811
     2015.70431       119.44865         8.29513
     2015.70705       116.67761         8.21181
     2015.70978       115.18357         8.37754
     2015.71252        99.02753         8.30509
     2015.71526       101.11149         8.46630
     2015.71800       106.89946         8.37664
     2015.72073       112.71042         8.82767
     2015.72347       106.35738         8.41377
     2015.72621        94.75734         8.34041
     2015.72895        96.76631         8.33498
     2015.73169        83.79027         8.58132
     2015.73442       100.44223         8.52789
     2015.73716       114.75419         8.40109
     2015.73990       104.12815         8.16290
     2015.74264       100.71612         8.20818
     2015.74538       109.26408         8.32592
     2015.74811        95.16604         8.25437
     2015.75085       108.31400         8.28969
     2015.75359       108.48096         8.34856
     2015.75633       113.53393         8.23626
     2015.75906       112.20889         8.20456
     2015.76180       112.71485         8.36758
     2015.76454        97.19881         8.64653
     2015.76728       112.88278         8.39475
     2015.77002       115.21474         8.44909
     2015.77275       121.48370         8.96986
     2015.77549       107.59566         8.41106
     2015.77823       114.31962         8.33226
     2015.78097       103.66759         8.27067
     2015.78371       112.36055         8.25437
     2015.78644       111.73951         8.27249
     2015.78918       104.97647         8.38841
     2015.79192       114.24543         8.59219
     2015.79466       105.42540         8.39747
     2015.79739       110.92636         8.57770
     2015.80013        96.28832         9.20353
     2015.80287       109.40328         8.35762
     2015.80561       112.41125         8.37573
     2015.80835       104.52721         8.41015
     2015.81108        90.91817         8.66827
     2015.81382        98.65113         8.60487
     2015.81930       100.92306         8.42283
     2015.82203       112.49002         8.41830
     2015.82477       106.01298         8.46087
     2015.82751       101.19994         8.37483
     2015.83025       108.66090         8.50253
     2015.83299        94.11787         8.98888
     2015.83572       101.49483         8.62570
     2015.83846        99.64179         8.82948
     2015.84120       100.53275         8.88382
     2015.84394       101.28872         8.59129
     2015.84668       102.11868         8.61212
     2015.84941       103.12864         8.79597
     2015.85215        96.71860         9.24972
     2015.85489        94.02256         8.70540
     2015.85763        97.70753         8.60849
     2015.86036       103.45749         8.57770
     2015.86310        94.67745         8.81771
     2015.86584       109.34741         9.14375
     2015.86858       105.64738         9.02058
     2015.87132        98.03034         9.35568
     2015.87405       101.22630         8.83582
     2015.87679       102.82426         9.09032
     2015.87953       104.73722         9.24066
     2015.88227        98.51219         9.24066
     2015.88501        94.24215         8.78872
     2015.88774       102.41811         8.61574
     2015.89048       106.03807         8.65649
     2015.89322       102.87903         9.19719
     2015.89596       108.64400         9.16549
     2015.89869       100.91196         8.72895
     2015.90143        96.44092         8.63566
     2015.90417       100.39388         8.64653
     2015.90691        99.37485         8.64291
     2015.90965       101.40781         8.72623
     2015.91238        98.45377         8.94993
     2015.91512       104.36373         8.62389
     2015.91786       104.78269         8.81589
     2015.92060       118.56466         9.46708
     2015.92334       100.13562         8.82405
     2015.92607        93.75258         9.17998
     2015.92881        96.02554         9.50059
     2015.93155        97.27950         9.55765
     2015.93429       114.39247         9.42089
     2015.93702        98.11443         9.96430
     2015.93976       113.97539        10.21698
     2015.94250        98.62635         9.75690
     2015.94524       103.22232         9.14103
     2015.94798       110.17528         9.64369
     2015.95071       102.11324         9.25696
     2015.95345       101.12320         9.28685
     2015.95619       101.52116         9.75508
     2015.95893        87.21213        10.11645
     2015.96167       102.21009         9.20353
     2015.96440       100.97605         9.08850
     2015.96714       103.09601         9.38919
     2015.96988       105.49697         9.67267
     2015.97262       102.88394         9.08398
     2015.97535       102.65690         9.11658
     2015.97809        99.78386         9.14466
     2015.98083        97.20982         9.27145
     2015.98357        89.22179         9.21983
     2015.98631        95.31575         9.74059
     2015.98904        93.94771         8.93726
     2015.99178        91.88567         9.12383
     2015.99452        95.20963         9.24247
     2015.99726       102.86860         9.20171
     2016.00000       100.98456         9.24609
     2016.00273       101.82752         9.00880
     2016.00547       107.01148         8.94993
     2016.00821       103.23244         9.39825
     2016.01095       117.69441         9.25877
     2016.01368       111.49237         9.30949
     2016.01642       100.17933         9.01152
     2016.01916       102.95829         8.93363
     2016.02190       102.95926         8.93544
     2016.02464       101.56222         9.09303
     2016.02737        95.89718         9.38828
     2016.03011        98.95714         9.03869
     2016.03285       104.26710         9.07039
     2016.03559        97.38507         9.07130
     2016.03833       103.80403         9.91448
     2016.04106       100.78899         9.45712
     2016.04380       121.70995         9.10209
     2016.04654       106.93591         8.89016
     2016.04928        95.58788         8.97982
     2016.05201       102.29584         9.07492
     2016.05475       102.71980         8.96624
     2016.05749       102.04076         9.00337
     2016.06023        98.75773         8.89016
     2016.06297        93.61269         8.93092
     2016.06570        90.63665         9.24519
     2016.06844       105.32661         9.65818
     2016.07118        94.87257         9.76142
     2016.07392       111.05554         9.71071
     2016.07666        92.45550         9.57123
     2016.07939        87.92646         9.29590
     2016.08213        88.93742         9.16730
     2016.08487        88.72538         9.24790
     2016.08761        85.49135         9.40640
     2016.09034        92.46331         9.43900
     2016.09308        90.28627         9.38919
     2016.09582        78.56423         9.22979
     2016.09856        79.30420         9.42270
     2016.10130        80.23716         9.41274
     2016.10403        89.54512         9.28504
     2016.10677        83.98808         9.29953
     2016.10951        77.17704         9.43900
     2016.11225        80.87801         9.25696
     2016.11498        95.91197         9.21711
     2016.11772        79.75793         9.14737
     2016.12046        87.79889         9.21892
     2016.12320        95.46885         9.16186
     2016.12594        97.21682         9.29047
     2016.12867       108.35778         8.98526
     2016.13141       102.04374         9.00156
     2016.13415       103.48770         9.05862
     2016.13689        95.53567         9.04775
     2016.13963       105.38463         9.33485
     2016.14236        89.29559         8.88201
     2016.14510        90.85855         8.78963
     2016.14784       101.73651         8.95175
     2016.15058        87.65548         9.17907
     2016.15331        96.26244         9.60293
     2016.15605        98.43540         8.97982
     2016.15879       102.38136         9.73516
     2016.16153        92.87232         9.69078
     2016.16427        91.24729        10.01502
     2016.16700       114.66425         9.09666
     2016.16974       108.91121         9.01605
     2016.17248       109.20217         8.96986
     2016.17522        90.17414         9.25696
     2016.17796       102.44610         9.09937
     2016.18069       108.55806         9.93260
     2016.18343        94.50302         9.41817
     2016.18617       104.60198         9.13107
     2016.18891        94.62895         9.04503
     2016.19164        98.79191         9.14194
     2016.19438       104.43987         9.26602
     2016.19712        99.76883         9.46436
     2016.19986        89.57380         9.10118
     2016.20260        91.38676         8.98435
     2016.20533        89.44072         9.08669
     2016.20807        98.27968         9.06858
     2016.21081       101.84664         9.27870
     2016.21355        98.96061         9.22254
     2016.21629        86.80757         9.81305
     2016.21902       101.86953         9.18179
     2016.22176        97.64649         9.07220
     2016.22450        94.04545         9.28594
     2016.22724        77.34842         9.34209
     2016.22997        94.56938         9.06586
     2016.23271       107.08234         9.42451
     2016.23545        92.25630         9.35387
     2016.23819        91.91227         9.05137
     2016.24093       101.64023         9.87554
     2016.24366        91.85019         9.34843
     2016.24640        96.74515         9.20443
     2016.24914        92.83211         9.31492
     2016.25188        95.35008         9.10028
     2016.25462       105.02904         9.23794
     2016.25735        90.90700         9.55402
     2016.26009        89.49696         9.22798
     2016.26283        81.91192         9.45440
     2016.26557        93.57289        10.13004
     2016.26830        96.62285         9.33394
     2016.27104        93.21381         9.40187
     2016.27378       101.41577         9.47704
     2016.27652        89.54274         9.36926
     2016.27926        85.68970         9.51236
     2016.28199        87.19266         9.44625
     2016.28473        93.76062         9.48881
     2016.28747        96.26758         9.43629
     2016.29021        93.09555         9.60565
     2016.29295        95.90251         9.54316
     2016.29568        95.16747         9.57395
     2016.29842        91.56343         9.83478
     2016.30116        83.92539         9.92626
     2016.30390        93.38236        10.16445
     2016.30663        98.44432         9.99056
     2016.30937       101.47228         9.49787
     2016.31211        87.54524         9.37017
     2016.31485        90.53821         9.30043
     2016.31759        99.50317         9.33123
     2016.32032        82.78113         9.35477
     2016.32306        88.90909         9.36564
     2016.32580        90.12405         9.44715
     2016.32854        93.10502         9.35025
     2016.33128        97.24698         9.24156
     2016.33401        95.69994         9.33213
     2016.33675        83.10290         9.45802
     2016.33949        93.73086         9.31855
     2016.34223        87.01283         9.18088
     2016.34496        91.48679         9.24700
     2016.34770        90.78875         9.59569
     2016.35044        85.31771        10.15630
     2016.35318        94.03068         9.33485
     2016.35592        90.46164         9.27507
     2016.35865        82.49960         9.27960
     2016.36139        82.79956         9.21168
     2016.36413        88.39952         9.16911
     2016.36687       112.49849         9.55493
     2016.36961       108.66745         9.82573
     2016.37234       106.43941         9.40187
     2016.37508        93.14537         9.23432
     2016.37782        93.35133         9.22979
     2016.38056       113.56230         9.14013
     2016.38329       100.51426         9.43629
     2016.38603        89.98122         9.20081
     2016.38877       114.38118         9.26964
     2016.39151        97.28515         9.08579
     2016.39425        90.28211         9.13288
     2016.39698       111.10907         9.44625
     2016.39972       118.74503         9.42632
     2016.40246        99.99099         9.55040
     2016.40520        95.15096         9.17364
     2016.40794        83.40692         9.22798
     2016.41067        92.31688         9.19356
     2016.41341        92.87384         9.29500
     2016.41615        83.49780         9.12383
     2016.41889        95.07777         9.33304
     2016.42162        98.67973         9.43538
     2016.42436        97.69169         9.34028
     2016.42710        94.40165         9.34753
     2016.42984       110.74062         9.38738
     2016.43258        91.75158         9.23522
     2016.43531        95.36754         9.58029
     2016.43805       105.03250         9.21439
     2016.44079       108.43346         9.57576
     2016.44353       103.86643         9.28141
     2016.44626        91.52439         9.19809
     2016.44900        93.35735         9.41455
     2016.45174       109.16831         9.57667
     2016.45448        99.71627         9.17364
     2016.45722       105.18924         9.40459
     2016.45995       102.54420         9.42904
     2016.46269       126.52716         9.43629
     2016.46543       104.06712         9.17454
     2016.46817       109.23309         9.38013
     2016.47091       102.86005         9.30315
     2016.47364       104.19601         9.14918
     2016.47638        98.78697         9.99056
     2016.47912       109.88693         9.21802
     2016.48186        92.38490         8.99250
     2016.48459        98.05286         9.18179
     2016.48733        99.56582         9.35749
     2016.49007       109.36278         9.17636
     2016.49281       106.90974         9.18179
     2016.49555       111.14171         9.13560
     2016.49828       100.06867         9.53682
     2016.50102       115.13863         9.43266
     2016.50376        95.78559         9.37560
     2016.50650       104.26356         9.15552
     2016.50924       111.89452         9.16005
     2016.51197        98.60948         9.14556
     2016.51471       100.28844         9.23794
     2016.51745       119.89940         9.41636
     2016.52019       104.20537         9.37923
     2016.52292        98.54733         9.47976
     2016.52566       106.98429         9.00065
     2016.52840        85.97725         9.05137
     2016.53114       101.43622         9.57033
     2016.53388       103.38518         9.36111
     2016.53661       105.86714         9.74693
     2016.53935       105.59310         9.24428
     2016.54209       104.17206         8.98707
     2016.54483       105.68703         9.11567
     2016.54757        99.17399         9.14466
     2016.55030       105.99995         9.95252
     2016.55304       112.36991         9.29047
     2016.55578       112.50487         9.06496
     2016.55852       103.56884         9.03054
     2016.56125       111.72180         9.30315
     2016.56399       112.14376         9.57848
     2016.56673       113.40972         9.12111
     2016.56947        98.53569         9.07945
     2016.57221       115.55465         9.35387
     2016.57494       107.63861         9.05771
     2016.57768       116.70457         9.18632
     2016.58042       101.09953         8.88020
     2016.58316       105.18950         9.12564
     2016.58590       111.08246         9.13922
     2016.58863       112.39042         9.19175
     2016.59137       115.87838         9.07311
     2016.59411        97.14034         9.11567
     2016.59685       108.40331         9.15190
     2016.59958       105.57827         9.10752
     2016.60232       121.49223         9.35840
     2016.60506       114.97719         9.23794
     2016.60780       109.43716         9.26330
     2016.61054       104.48712         9.05047
     2016.61327       118.72208         9.32760
     2016.61601       109.88904         8.98888
     2016.61875       117.81500         8.89650
     2016.62149       110.40497         9.45530
     2016.62423       104.91493         8.85303
     2016.62696       105.60789         8.98073
     2016.62970       111.88585         8.97892
     2016.63244       111.01081         9.12111
     2016.63518       115.30278         8.73710
     2016.63791       127.36574         8.91190
     2016.64065       142.93870         9.45078
     2016.64339       114.34566         9.00699
     2016.64613       119.10763         9.29500
     2016.64887       116.46259         8.86390
     2016.65160       109.64855         8.91280
     2016.65434       111.72951         9.02511
     2016.65708       114.16547         9.10209
     2016.65982       117.92944         9.25968
     2016.66256       118.11240         9.04413
     2016.66529       112.30936         9.24066
     2016.66803       105.64332         9.26511
     2016.67351       118.46925         8.73982
     2016.67624       108.96621         8.93454
     2016.67898       115.17917         8.76336
     2016.68172       130.98413         9.17817
     2016.68446       117.47810         9.02692
     2016.68720       112.94506         9.49515
     2016.68993       123.40802         9.42632
     2016.69267       104.42598         8.87205
     2016.69541       132.83894         9.32217
     2016.69815       115.62491         8.74525
     2016.70089       119.18087         8.76065
     2016.70362       113.18283         8.76699
     2016.70636        93.34979         9.56851
     2016.70910       103.78175         9.70708
     2016.71184       111.71872         9.16911
     2016.71457       118.69768         8.81499
     2016.71731       129.23664         8.72623
     2016.72005       117.42960         8.68185
     2016.72279       123.65057         8.95990
     2016.72553       125.31853         9.63916
     2016.72826       121.78549         9.54678
     2016.73100       114.57445         8.92820
     2016.73374       122.38541         9.15100
     2016.73921       125.50834         9.30677
     2016.74195       110.60930         8.92186
     2016.74469       110.84726         9.06133
     2016.74743       113.31522         8.79959
     2016.75017       114.02219         8.73076
     2016.75290       105.09315         8.78148
     2016.75564       120.66611         8.76065
     2016.75838       123.95307         9.62648
     2016.76112       116.59804         8.94903
     2016.76386       108.54400         8.83129
     2016.76659       131.06296         9.32398
     2016.76933       111.83692         8.81680
     2016.77207       110.97488         8.98707
     2016.77754       106.33681         8.86752
     2016.78302        99.76273         8.84578
     2016.78576       124.42269         9.47070
     2016.78850       110.45966         8.87657
     2016.79123       115.03562         8.93001
     2016.79397        98.50958         9.27507
     2016.79671       104.92054         8.91280
     2016.79945        98.99351         8.92910
     2016.80219        94.91447         9.03688
     2016.80492        96.06643         9.35206
     2016.80766       120.02139         8.92276
     2016.81040       103.29135         9.53772
     2016.81587       129.22728         9.14194
     2016.81861        99.40024         8.95537
     2016.82409       107.52916         8.89922
     2016.82956       100.00209         8.92639
     2016.84325        98.66490         9.09937
     2016.84599       100.77786         8.91461
     2016.84873       110.36682         8.75159
     2016.85147       104.48079         8.62661
     2016.85694       107.51971         9.30134
     2016.85968       118.92967         8.91099
     2016.86516       103.73760         9.18813
     2016.86789       112.44856         9.00971
     2016.87063       111.74852         9.42995
     2016.87337       113.87648         9.55221
     2016.88158       104.01437         8.96352
     2016.88980       105.74126         9.04865
     2016.89253       110.09522         8.82223
     2016.90896       108.66099         8.78601
     2016.91170       106.29795         8.76336
     2016.91444        88.90292         9.17273
     2016.91718        97.93788         8.91190
     2016.91991        86.19184         8.81771
     2016.92265       109.91880         9.04775
     2016.92539       103.02576         8.79416
     2016.92813        94.67173         8.75069
     2016.93086       104.75169         8.93182
     2016.93360       108.53265         8.95084
     2016.93634        97.09461         9.35296
     2016.93908        98.20558         9.11658
     2016.94182       111.67654         8.86571
     2016.94455        99.74450         8.96261
     2016.94729        94.21046         9.69259
     2016.95003        93.99742         9.83478
     2016.95277        97.32639         9.88188
     2016.95551        85.96735         9.12111
     2016.95824       103.94131         9.24972
     2016.96098       109.57327         8.98797
     2016.96372       100.58923         8.86752
     2016.96646        96.22320         8.84216
     2016.96919        94.60316         8.98345
     2016.97193       100.00112         8.79959
     2016.97467       108.49808         8.85484
     2016.97741       110.65405         9.40096
     2016.98015       102.80301         8.74253
     2016.98288       101.88997         8.72714
     2016.98562       101.85093         8.72714
     2016.98836        98.30989         8.89197
     2016.99110       103.55186         8.96624
     2016.99384        99.57582         8.74616
     2016.99657       111.98578         8.93816
     2016.99931       103.73074         8.78148
     2017.00205        98.94570         9.03507
     2017.00479       106.58867         8.95899
     2017.00752       102.94963         8.93997
     2017.01009       105.80847         9.72339
     2017.01574       104.62452         8.77333
     2017.01848       112.30548         9.15915
     2017.02121        91.52944         9.67448
     2017.02395        94.27540         9.11839
     2017.02669        97.28536         8.91642
     2017.02943       109.83533         8.83672
     2017.03216       101.66029         8.81589
     2017.03490        99.94825         8.99250
     2017.03764        91.79621         8.87476
     2017.04038       103.98117         8.97167
     2017.04312       100.52714         9.00428
     2017.04585       110.62710         9.89818
     2017.04859       122.23106        10.29487
     2017.05133       109.23002         9.15009
     2017.05407       103.43199         9.01514
     2017.05681       104.15795         8.99884
     2017.05954       100.94391         9.17998
     2017.06228        95.45087         8.97711
     2017.06502       101.51183         8.92095
     2017.06776        91.13080         8.99522
     2017.07049        93.76576         9.01696
     2017.07323        89.07872         8.97711
     2017.07597        83.51168         8.80684
     2017.07871        89.63664         8.96443
     2017.08145        93.04861         9.11658
     2017.08418        92.65657         9.16186
     2017.08692        99.25353         9.24338
     2017.08966        91.64749         8.90103
     2017.09240        77.98546         9.03960
     2017.09514        92.30842         9.01243
     2017.09787        84.93138         9.12201
     2017.10061       102.15634         8.93363
     2017.10335       100.20730         9.03688
     2017.10609        84.77227         8.89650
     2017.11156        96.09919         9.25605
     2017.11430        89.65615         8.72714
     2017.11704        88.13911         8.83220
     2017.11978        95.97108         8.79959
     2017.12251        91.12804         8.88382
     2017.12525        94.09600         9.11205
     2017.12799       103.51696         9.07220
     2017.13073        95.96993         8.82405
     2017.13347        97.47389         8.83763
     2017.13620       104.77085         8.89197
     2017.13894        98.05081         9.13017
     2017.14168        80.26177         9.30677
     2017.14442        77.92974         8.90646
     2017.14715        92.37470         8.97348
     2017.14989        99.28466         9.21620
     2017.15263        93.71162         8.98978
     2017.15537        97.51158         9.03507
     2017.15811        89.92155         8.89469
     2017.16084        98.12851         8.83854
     2017.16358        90.73547         9.00518
     2017.16632        97.53943         8.91371
     2017.16906        94.13740         9.23251
     2017.17180        98.68236         9.00880
     2017.17453        92.94732         8.95718
     2017.17727        82.49628         8.73619
     2017.18001        90.73724         8.84306
     2017.18548        91.51817         9.04865
     2017.26214       100.91411         9.14375
     2017.26488        91.56607         9.11477
     2017.26762        99.86103         9.05137
     2017.27036        96.03700         9.10028
     2017.27310        82.46596         8.85665
     2017.27583        94.62992         9.00337
     2017.27857        96.47788         9.43991
     2017.28131        94.64484         8.97982
     2017.28405        82.81781         9.42904
     2017.28679        87.53277         8.96714
     2017.28952        94.87073         8.88382
     2017.29226        78.31069         9.11205
     2017.29500        93.18865         8.84578
     2017.29774        92.72062         9.01424
     2017.30047        86.29958         9.34843
     2017.30321        90.84554         8.99703
     2017.30595        91.83350         9.20534
     2017.30869        90.39447         8.89378
     2017.31143        83.70643         9.33575
     2017.31416        92.50639         8.96533
     2017.31690        85.60735         9.14284
     2017.31964        94.87831         9.08035
     2017.32238        88.92628         8.87114
     2017.32512        82.57024         8.89378
     2017.32785        81.06420         8.85665
     2017.33059        98.09916         9.75237
     2017.33333        86.88212         8.96443
     2017.33607        82.24909         8.99250
     2017.33880        87.89005         9.24700
     2017.34154        94.73801        10.07932
     2017.34428        99.00997         8.95356
     2017.34702       100.87594         8.92005
     2017.34976        87.88490         8.90556
     2017.35249        96.01986         9.12835
     2017.35523        96.85582         8.73891
     2017.35797        95.94878         9.30858
     2017.36071        99.23975         9.20715
     2017.36344        93.43471         8.96624
     2017.36618        97.17267         8.93635
     2017.36892        96.72663         8.77152
     2017.37166        93.35059         8.94088
     2017.37440        95.06056         9.09666
     2017.37713        92.61052         9.32760
     2017.37987        88.63548         9.04956
     2017.38261        79.52744         8.85846
     2017.38535        98.58741         9.22526
     2017.38809        98.47537         9.34391
     2017.39082       100.58533         9.17907
     2017.39356       114.00029         9.29681
     2017.39630       102.20025         9.06405
     2017.39904       109.67322         8.99975
     2017.40177        91.55318         9.05409
     2017.40451       101.64514         9.32126
     2017.40725       105.92610         9.14466
     2017.40999       101.38506         9.14918
     2017.41273       101.87503         9.13107
     2017.41546        99.36799         9.08307
     2017.41820       105.67995         9.72882
     2017.42094       101.76591         9.04050
     2017.42368        94.82488         9.07401
     2017.42642        97.45284         9.19900
     2017.42915        97.33680         9.24428
     2017.43189        95.68076         9.48066
     2017.43463       114.11772         9.29138
     2017.43737       103.72869         9.06858
     2017.44010        94.15965         8.99884
     2017.44284       101.43561         8.89469
     2017.44558        97.36057         8.90103
     2017.44832       101.69853         9.13560
     2017.45106       102.68950         9.09847
     2017.45379       102.20346         9.20624
     2017.45653       101.77742         9.23522
     2017.45927       100.94638         9.20624
     2017.46201        96.68835         9.32126
     2017.46475        90.78131         9.47795
     2017.46748       102.08627         9.57576
     2017.47296        95.18519         9.28775
     2017.47570       104.35616         9.09847
     2017.48117        93.27508         9.63463
     2017.48391       101.34704         9.16820
     2017.48665       106.03800         9.10118
     2017.48939       106.64697         9.42361
     2017.49212       115.48693         9.48338
     2017.49486       116.74789         9.94528
     2017.49760       101.47985         9.77682
     2017.50034       109.40182         9.05047
     2017.50308       113.80778         9.48157
     2017.50581        99.00274         9.23613
     2017.50855       107.87270         9.27689
     2017.51129       105.93966         9.86105
     2017.51403       104.11663         9.44534
     2017.51676        97.26059         9.17907
     2017.51950       101.06955         9.63644
     2017.52224       112.18351         9.25605
     2017.52498       107.34147         9.36383
     2017.52772        89.48644        10.63541
     2017.53045       114.27640         9.20353
     2017.53319       101.81736         9.72339
     2017.53593        98.44432         9.03326
     2017.53867       114.55329         9.59478
     2017.54141        97.56425         9.37923
     2017.54414       108.24521         9.21077
     2017.54688        98.55117         9.31764
     2017.54962        96.11013         9.08941
     2017.55236        95.64010         9.21711
     2017.55509       104.09606         9.18451
     2017.55783       102.35802         9.21711
     2017.56057       110.65098         9.35025
     2017.56331        99.15494         9.65999
     2017.56605       100.48091         9.26692
     2017.56878        99.74487         9.27507
     2017.57152       116.55283         9.56399
     2017.57426       106.51979         9.45893
     2017.57700       105.98976         9.36111
     2017.57974       101.97372         9.29319
     2017.58247        95.44868         9.10752
     2017.58521       105.61364         9.34934
     2017.58795        93.17560         9.22526
     2017.59069       101.71257         9.00337
     2017.59342       106.04453         9.23885
     2017.59616        94.67549         9.11024
     2017.59890       101.96745         9.06224
     2017.60164       112.30142         9.15643
     2017.60438       115.44038        10.01683
     2017.60711       109.12234         9.29409
     2017.60985       110.49530         9.31945
     2017.61259       106.11026         9.23522
     2017.61533        73.61223         9.86920
     2017.61807        97.41019         9.18451
     2017.62080       101.68715         9.60655
     2017.62354       108.88811         9.40096
     2017.62628        90.41407         9.41274
     2017.62902       123.51004         9.37560
     2017.63175       104.29600         9.60565
     2017.63449       112.74696         9.25062
     2017.63723       103.08292         9.47342
     2017.63997       100.33089         9.28323
     2017.64271        98.73585         9.11930
     2017.64544       103.52881         9.28957
     2017.64818       110.15277         9.28323
     2017.65092       107.60973         9.19537
     2017.65366       110.07170         9.32036
     2017.65639       108.60166         9.14013
     2017.65913       120.81862         9.22436
     2017.66187        99.87458         9.13107
     2017.66461       123.23054         9.55765
     2017.66735       102.95251         9.23794
     2017.67008       103.54347         9.00790
     2017.67282       109.80243         9.06043
     2017.67556       103.56239         8.97711
     2017.67830       108.09836         9.14103
     2017.68104        82.98132         9.15462
     2017.68377       134.27628        10.29759
     2017.68651       102.29124         9.36111
     2017.68925       119.64120         9.52866
     2017.69199       118.99117         9.54950
     2017.69472       114.42613         9.12835
     2017.69746        95.69809         8.96805
     2017.70020       116.05905         9.33938
     2017.70294       114.88201         9.22345
     2017.70568       105.07598         9.12473
     2017.70841       106.17794         9.43447
     2017.71115       128.49890         9.75418
     2017.71389       101.41686         9.48338
     2017.71663       107.48883         9.16639
     2017.71937       104.31379         9.13832
     2017.72210       113.90775         9.30587
     2017.72484       112.23271         9.13469
     2017.72758       101.66267         9.05409
     2017.73032       107.39564         9.27598
     2017.73305       110.22960         9.25334
     2017.73579       108.26356         9.25696
     2017.73853       100.09452         9.28232
     2017.74127       100.02048         9.20534
     2017.74401        84.98845         9.65003
     2017.74674        99.78741         9.50965
     2017.74948       126.30037         9.59750
     2017.75222       108.91333         9.19175
     2017.75496       108.93330         9.12020
     2017.75770       109.99326         9.09394
     2017.76043       104.39522         9.31221
     2017.76317       113.27218         9.26873
     2017.76591       108.11314         9.40006
     2017.76865       111.16711         9.29862
     2017.77138       102.07207         9.30858
     2017.77412       120.12703         9.55855
     2017.77686        96.26199         9.20987
     2017.77960       100.40095         9.26783
     2017.78234       102.90092         9.30224
     2017.78507       107.55988         9.25605
     2017.78781       105.73484         8.99975
     2017.79055       102.53680         8.96261
     2017.79329       124.65977         9.40278
     2017.79603       115.58773         9.39644
     2017.79876        93.33169         9.48338
     2017.80150       101.57265         9.18632
     2017.80424       113.48161         9.23070
     2017.80698       108.60358         9.19175
     2017.80971       105.79054         9.09394
     2017.81245       100.66950         8.94993
     2017.81519       107.73946         9.18269
     2017.81793        99.05242         9.12654
     2017.82067        99.72839         8.96533
     2017.82340       109.23335         9.02963
     2017.82614        98.46831         8.97711
     2017.82888       114.95327         9.35115
     2017.83162       108.92124         9.08035
     2017.83436        97.70820         9.11296
     2017.83709        99.31316         9.09213
     2017.83983       101.03612         8.99612
     2017.84257       101.38208         8.93635
     2017.84531       107.57805         9.21802
     2017.84804        99.36601         9.00246
     2017.85078        98.79297         9.46436
     2017.85352       111.28493         9.31855
     2017.85626       101.70989        10.23419
     2017.85900       108.77986         9.85924
     2017.86173       102.13682         9.06948
     2017.86447       102.36278         9.15462
     2017.86721       110.35674         9.38013
     2017.86995        95.09971         9.38285
     2017.87269        97.39467         9.00428
     2017.87542       100.38563         8.98616
     2017.87816       102.25259         9.19719
     2017.88090       112.78955         8.93454
     2017.88364       106.73952         9.02963
     2017.88637       106.33648         9.23522
     2017.88911       107.08444         9.29681
     2017.89185        88.88940         9.63463
     2017.89459       103.46036         9.63101
     2017.89733       115.25533         9.14737
     2017.90006       110.34129         9.19085
     2017.90280       113.68425        10.20430
     2017.90554       112.00021         9.09666
     2017.90828       104.37018         9.11477
     2017.91102       111.18814         9.51961
     2017.91375       107.35910        10.35827
     2017.91649       111.52106         9.40187
     2017.91923       107.91202         8.90737
     2017.92197       110.27699         8.82223
     2017.92470       100.66295         8.90737
     2017.92744       101.51991         8.76880
     2017.93018       103.98087         8.82223
     2017.93292       105.88584         8.96261
     2017.93566       105.91880         8.99431
     2017.93839       109.81576         8.80684
     2017.94113        99.19372         8.80231
     2017.94387       112.10568         9.06948
     2017.94661       119.26665         8.89016
     2017.94935       111.62161         8.97167
     2017.95208       111.10957         9.46164
     2017.95482       125.57853         9.39100
     2017.95756       103.56449         8.91552
     2017.96030       115.19646         9.09575
     2017.96303       111.13442         9.02782
     2017.96577       127.98638         9.31674
     2017.96851       104.86934         8.93454
     2017.97125        98.98931         9.00246
     2017.97399        95.51527         8.94993
     2017.97672       103.89323         8.99431
     2017.97946       106.36719         9.18813
     2017.98220       104.40815         8.99612
     2017.98494       107.22212         8.77786
     2017.98767        99.44208         9.22798
     2017.99041        99.49904         8.97529
     2017.99315       108.94600         9.12835
     2017.99589        77.69796         9.15824
     2017.99863       104.27293         8.93726
     2018.00136        89.68189         8.86118
     2018.00410       103.65685         9.06767
     2018.00684       100.51181         8.92276
     2018.00958       122.93578         9.33394
     2018.01232       107.29374         9.35206
     2018.01505       110.00570         8.91914
     2018.01779       110.59366         8.89741
     2018.02053       102.25762         9.08669
     2018.02327       106.08659         8.99884
     2018.02600       102.73755         9.13288
     2018.02874       112.44651         9.37198
     2018.03148       103.64547         9.07311
     2018.03422       100.42543         9.03507
     2018.03696       105.36640         9.06677
     2018.03969        94.23836         9.12654
     2018.04243       111.00032         9.32036
     2018.04517       106.63028         9.10571
     2018.04791       117.35725         9.49063
     2018.05065       105.80621         8.86752
     2018.05338       103.86917         9.09847
     2018.05612       106.62813         9.10481
     2018.05886       102.61809         9.04594
     2018.06160       106.64106         8.90556
     2018.06433        99.73002         9.17726
     2018.06707       110.55598         9.55221
     2018.06981       109.68894         9.47614
     2018.07255        97.74790         9.31311
     2018.07529       108.42787         9.42089
     2018.07802        97.64483         9.51417
     2018.08076       116.69179        10.40627
     2018.08350        97.95375         9.29681
     2018.08624       110.49672         9.63735
     2018.08898       111.49568         9.68535
     2018.09171        88.36164         9.40821
     2018.09445       115.50260         9.31674
     2018.09719       115.96456         9.30224
     2018.09993        98.76253         9.40187
     2018.10266        97.71149         9.66905
     2018.10540       108.13245         9.48157
     2018.10814       112.76441         9.50874
     2018.11088       112.69637         9.25968
     2018.11362       104.64634         9.74693
     2018.11635       100.99230         9.45621
     2018.11909       108.65726         9.65274
     2018.12183       105.29922         9.73607
     2018.16564       100.47362        10.03494
     2018.82909       119.95710        14.61497
     2018.83093       117.99342         9.23975
     2018.83367       104.45238         9.12564
     2018.83641       108.70734         9.52323
     2018.83915       121.63731         9.26239
     2018.84188        98.37127         9.73335
     2018.84462       107.77023         9.22073
     2018.84736       105.12319         9.11749
     2018.85010       115.12715         9.08488
     2018.85284       108.70512         8.96080
     2018.85557       112.79308         9.20353
     2018.85831       116.71204         9.16730
     2018.86105       112.92500         9.12654
     2018.86379       112.48997         9.63101
     2018.86653       109.05793         9.17183
     2018.86926       117.28889         9.19175
     2018.87200       105.82685         8.81046
     2018.87474       105.54881         8.99069
     2018.87748        99.33578         9.31221
     2018.88021       113.37574         9.28051
     2018.88295       110.22370         9.28504
     2018.88569       111.92666         9.27417
     2018.88843       122.76562         9.55131
     2018.89117       111.65159         9.48157
     2018.89390       100.78255         9.63463
     2018.89664       103.08351         9.48157
     2018.89938       101.79547         9.38285
     2018.90212       103.38244         9.28866
     2018.90485       110.66840         9.45621
     2018.90759       116.43236         9.26330
     2018.91033       114.01032         9.48248
     2018.91307       118.75128         9.43629
     2018.91581        68.98025         9.97969
     2018.91854       112.61021         9.10843
     2018.92128       113.23817         9.23794
     2018.92402       109.69713         9.48972
     2018.92676       118.18309         9.40730
     2018.92950       117.82606         9.25243
     2018.93223       113.66202         9.18813
     2018.93497       122.06098         9.63735
     2018.93771        96.73094         9.46617
     2018.94045        99.09991         9.32760
     2018.94318       108.73087         9.23975
     2018.94592        98.57983         8.97348
     2018.94866       104.95979         9.03960
     2018.95140       110.36575         9.48519
     2018.95414       108.61872         9.20624
     2018.95687       120.90368         9.28413
     2018.95961       119.06064         9.19900
     2018.96235       120.88560         9.17092
     2018.96509       116.23056         9.57757
     2018.96783       105.52153         9.23975
     2018.97056       110.41349         9.50783
     2018.97330       106.68345         9.07764
     2018.97604       108.38141         9.37289
     2018.97878       109.51438         9.52051
     2018.98425       105.97630         9.44263
     2018.98699       107.50426         9.14647
     2018.98973       101.47622         9.37923
     2018.99247       108.72219         9.37923
     2018.99520       103.69815         9.62920
     2018.99794        89.66511         9.46346
     2019.00068        91.34707         9.45802
     2019.00342        95.03204         9.54587
     2019.00616       101.01200         9.40821
     2019.00889        95.50596         9.25515
     2019.01163       101.14492         9.14737
     2019.01437       105.55488         9.16820
     2019.01687       107.15268        10.03766
     2019.01984        94.41281         9.17726
     2019.02258       101.89877         9.00065
     2019.02532       104.52073         8.98526
     2019.02806       100.15569         9.16368
     2019.03080        99.26966         8.93816
     2019.03353       111.26962         9.02692
     2019.03627       100.49058         9.05047
     2019.03901        98.65654         8.78148
     2019.04175        97.73751         9.03869
     2019.04449       105.90147         8.97801
     2019.04722        98.84643         8.96443
     2019.04996        87.75939         9.04322
     2019.05270        97.66035         9.05228
     2019.05544        99.46032         8.87114
     2019.05817       102.36628         9.43085
     2019.06091       119.89324        10.32929
     2019.06365        98.77520         9.29409
     2019.06639       107.59716         9.53863
     2019.06913        97.59313         9.84656
     2019.07186       103.29909        10.07570
     2019.07460        98.37405         9.11115
     2019.07734       105.91401         8.96443
     2019.08008       103.22398         8.93635
     2019.08282       109.66394        10.01139
     2019.08555       104.43190         9.29772
     2019.08829       101.52686         9.09394
     2019.09103       104.67882         9.01786
     2019.09377       112.26679         8.93363
     2019.09650       115.42475         8.89378
     2019.09924       104.88271         8.75521
     2019.10198       103.03567         8.88563
     2019.10472       104.03263         8.93997
     2019.11019       107.10056         8.92548
     2019.11293       131.24952         8.89559
     2019.11567       101.04848         8.82948
     2019.11841       111.96045         8.92639
     2019.12115       124.81341         8.96261
     2019.12388       110.44537         8.93997
     2019.12662       113.47033         8.89922
     2019.12936       101.01129         8.75069
     2019.13210       102.84126         8.93454
     2019.13483       100.74222         9.01514
     2019.13757       108.66518         8.92639
     2019.14031       114.09414         8.93092
     2019.14305       107.93210         8.91280
     2019.14579        94.35507         8.89469
     2019.14852        96.92203         9.28866
     2019.15400       118.87795         9.51236
     2019.15674       104.81592         8.98797
     2019.15948        84.04188         8.94993
     2019.16221        93.72984         9.03960
     2019.16495        97.75480         9.02873
     2019.16769        96.84876         8.93997
     2019.17043        95.58873         9.04956
     2019.17316       101.97669         9.22164
     2019.17590       101.85765         8.90284
     2019.17864        99.07161         9.11477
     2019.18138        94.27357         8.94722
     2019.18412        90.37054         8.86752
     2019.18685       102.30350         8.96805
     2019.18959        99.56746         8.94269
     2019.19233       109.68242         9.33757
     2019.19507        98.34139         8.91280
     2019.19780        97.12735         9.03960
     2019.20054       104.14231         9.80490
     2019.20328       102.98127         9.00156
     2019.20602        91.59223         8.84035
     2019.20876       100.10720         8.87024
     2019.21149        95.70416         8.93363
     2019.21423        98.40512         9.02148
     2019.21697        99.79808         8.99522
     2019.21971        94.57104         9.03416
     2019.22245       103.55901         8.92639
     2019.22518        94.07997         8.97801
     2019.22792        98.78893         9.07130
     2019.23066        88.06089         9.01605
     2019.23340        99.67586         8.95175
     2019.23613       103.16482         9.07492
     2019.23887        91.55878         9.06858
     2019.24161        92.59874         9.65908
     2019.24435        87.25370         8.94269
     2019.24709        93.11967         8.94631
     2019.24982       103.70863         8.92820
     2019.25256       105.12459         9.14103
     2019.25530       102.85155         9.17817
     2019.25804        96.60951         9.23160
     2019.26078       111.96248         9.20715
     2019.26351        94.45144         9.21620
     2019.26625        94.61640         8.93001
     2019.26899       102.91236         9.29409
     2019.27173        97.28733         8.89650
     2019.27446        96.96629         8.75702
     2019.27720       102.41625         9.73335
     2019.27994       116.28421         9.04775
     2019.28268       105.88617         8.85846
     2019.28542        94.76114         9.01877
     2019.28815        95.22110         8.90737
     2019.29089        93.10906         8.98345
     2019.29363        95.91802         8.85303
     2019.29637        97.78798         8.89107
     2019.29911       102.56595         9.23070
     2019.30184        94.43291         9.32126
     2019.30458        92.98387         8.93182
     2019.30732       101.54583         9.27598
     2019.31006        96.04180         8.90737
     2019.31564       104.88480         9.22073
     2019.31827       101.29168         8.96805
     2019.32101       105.40864         8.94360
     2019.32375        93.25661         8.96895
     2019.32648        96.92257         8.99522
     2019.32922       100.03053         9.03688
     2019.33196       107.41849         9.02692
     2019.33470       106.55346         8.93635
     2019.33744       107.98842         8.87386
     2019.34017       106.65638         8.93544
     2019.34291        99.54634         8.99160
     2019.34565       102.97830         9.27779
     2019.34839        89.59627         9.25153
     2019.35112       120.48423         9.03960
     2019.35386       112.09419         9.00971
     2019.35660       111.05315         8.94812
     2019.35934       106.18211         8.96986
     2019.36208       102.48408         8.98073
     2019.36481       103.87604         9.17636
     2019.36755        88.23200         9.04775
     2019.37029       106.67396         9.15371
     2019.37303       123.40493         9.27960
     2019.37577       109.54689         9.13469
     2019.37850       104.48485         9.09303
     2019.38124        97.22681         9.13198
     2019.38398       112.81777         9.08488
     2019.38672       103.07274         9.03326
     2019.38945       102.51070         8.98616
     2019.39219        95.20066         9.45168
     2019.39493       116.23862         9.24700
     2019.39767       105.29358         9.08579
     2019.40041       109.76155         9.08398
     2019.40314       111.07751         8.83672
     2019.40588       109.20247         8.96986
     2019.40862       110.30443         8.99522
     2019.41136       111.97340         9.23432
     2019.41410       101.70536         9.08488
     2019.41683       110.77532         9.23613
     2019.41957        99.27428         9.00518
     2019.42231       106.65824         9.06496
     2019.42505       110.72821         9.42179
     2019.42778       122.73117         9.27055
     2019.43052       114.84713         9.10662
     2019.43326       107.74009         8.97167
     2019.43600       108.36305         9.11749
     2019.43874       100.09102         9.47070
     2019.44147       100.51798         9.40187
     2019.44421       107.24894         9.47523
     2019.44695       107.40490         9.69440
     2019.44969       102.74887         9.05409
     2019.45243       109.80483         9.50783
     2019.45516        99.18379         9.51146
     2019.45790       112.74175         9.39372
     2019.46064        89.79671         9.31583
     2019.46338        96.99668         9.47614
     2019.46611       108.16564         9.40368
     2019.46885       107.02060         9.28232
     2019.47159       111.07656         9.50331
     2019.47433       107.24752         9.56851
     2019.47707        96.00749         9.39825
     2019.47980       109.07845         9.54406
     2019.48254        99.34941         9.43810
     2019.48528        98.06137         9.46708
     2019.48802        97.24034         9.41998
     2019.49076       102.49630         9.15552
     2019.49349       101.81726         9.07582
     2019.51813        94.28792         8.62842
     2019.52087        99.29988         8.94722
     2019.52361        88.24384         8.91642
     2019.52635        91.42781         8.92186
     2019.52908        97.93177         9.19537
     2019.53182        95.19173         8.75159
     2019.53730       103.70965         8.87748
     2019.54004        98.01962         9.20534
     2019.54277       108.44058         9.43629
     2019.54551        97.73554         9.68897
     2019.54825       106.21150         8.90737
     2019.55099       112.04946         9.26330
     2019.55373        96.44143         9.02239
     2019.55646        91.39139         9.33666
     2019.55920        98.49735         9.08850
     2019.56194       113.89631         9.41545
     2019.56468       113.19528         8.98978
     2019.56741       110.17324         9.38557
     2019.57015       107.52920         9.14194
     2019.57289       104.05416         9.00065
     2019.57563       100.98612         8.74253
     2019.57837       105.88809         9.51599
     2019.58110       109.18405         9.33485
     2019.58384       101.91801         9.41093
     2019.58658        98.11597         8.95990
     2019.58932       104.02193         8.51793
     2019.59206       109.12190         8.75521
     2019.59479       101.47586         8.65015
     2019.59753       116.93382        10.14634
     2019.60027       104.36078        10.03494
     2019.60301        91.86575         8.64381
     2019.60574       106.50371         8.85756
     2019.60848        98.98167         8.63838
     2019.61122       101.02163         9.11749
     2019.61396       117.67459         9.54406
     2019.61670       108.78456         8.73348
     2019.61943       120.69652         9.22254
     2019.62217       107.80448         8.64834
     2019.63039       110.84637         8.94088
     2019.63312       109.47533         8.80503
     2019.63586       131.34229         9.65003
     2019.63860       108.16525         8.94812
     2019.64134       101.38522         9.41727
     2019.64407       106.64418         9.55221
     2019.64681       114.57214         8.80684
     2019.64955       107.00010         8.73076
     2019.65229       117.78906         8.89016
     2019.65503       100.18403         9.79946
     2019.65776       103.19699         9.89275
     2019.66050       113.00695         9.42995
     2019.66324       111.09391         9.14647
     2019.66598       114.31188         8.90737
     2019.66872       107.39384         8.97348
     2019.67145       102.81380         9.27326
     2019.67419       105.75676         9.15281
     2019.67693       116.88072         9.31764
     2019.67967       109.09869         9.35840
     2019.68240       110.11565         8.95084
     2019.68514       113.79661         9.23070
     2019.68788        96.88357         9.63916
     2019.69062        96.59153         9.28141
     2019.69336       105.64950         8.89288
     2019.69609        91.10246         9.13560
     2019.69883        99.37642         9.20624
     2019.70157       102.62838         8.76246
     2019.70431       117.48435         9.97335
     2019.70705       109.96331         8.85937
     2019.70978       113.90727         8.82948
     2019.71252        99.17423         9.49878
     2019.71526       100.94719         8.70087
     2019.71800       118.13616         9.16911
     2019.72073       105.83812         8.61574
     2019.72347       116.09308         8.92005
     2019.72621       126.65704         8.80321
     2019.72895       117.53000         8.74978
     2019.73169       125.43697         8.85303
     2019.73442       125.24993         9.35568
     2019.73716       113.73189         8.69182
     2019.73990       119.14885         8.81771
     2019.74264       109.93082         8.76970
     2019.74538       108.41778         8.65468
     2019.74811       114.30774         8.77967
     2019.75085       109.63170         8.63748
     2019.75359       102.36466         8.93001
     2019.75633       101.79963         8.64200
     2019.75906       108.69659         8.85031
     2019.76180       112.36455         8.61030
     2019.76454       111.97451         9.51780
     2019.76728       112.97947         9.48248
     2019.77002       104.29344         9.18632
     2019.77275       110.02740         9.40006
     2019.77549       106.85836         9.28504
     2019.77823       115.27132         9.20534
     2019.78097        99.30529         9.43991
     2019.78371       111.16525         9.45259
     2019.78644       117.60921         9.35840
     2019.78918       105.46017         9.90724
     2019.79192       125.38913         9.34934
     2019.79466       114.97110         9.25787
     2019.79739       131.73906         9.89909
     2019.80013       119.10102         9.46980
     2019.80287       125.52298         9.50602
     2019.80561       110.92194         9.83478
     2019.80835       103.09191         9.10752
     2019.81108       108.59187         9.32579
     2019.81382       110.88783         9.64731
     2019.81656       122.38179         9.91630
     2019.81930       114.43176         9.14375
     2019.82203       108.50172         9.15915
     2019.82477       104.83468         9.33213
     2019.82751       112.57564         9.41636
     2019.83025       108.86860         9.32398
     2019.83299       114.69457         9.17183
     2019.83572       110.91753         9.05137
     2019.83846       117.53749         9.28957
     2019.84120       118.63445         9.24066
     2019.84394       108.58041         9.29047
     2019.84668       106.45038         9.25968
     2019.84941       103.80834         9.01696
     2019.85215       108.06330         9.11205
     2019.86310        99.23815         9.85199
     2019.86584       111.46411         9.06767
     2019.86858       112.80307         9.45078
     2019.87132       107.72304         9.66633
     2019.87405       118.60000         9.03507
     2019.87679       106.29096        10.25140
     2019.87953       120.77592         9.23613
     2019.88501       117.81885         9.00246
     2019.88774       103.77981        10.19253
     2019.89048       123.01677         9.26239
     2019.89322       107.28073         9.07582
     2019.89596       116.98470         9.40730
     2019.89869       115.46166         9.28323
     2019.90143       114.95062         9.17092
     2019.90417       123.89458         9.43629
     2019.90691       116.39554         9.16277
     2019.90965       115.98551         9.26421
     2019.91238       113.97547         9.13741
     2019.91512       127.33143         9.21439
     2019.91786       119.02839         9.14103
     2019.92060       111.84935         9.23070
     2019.92334       113.25932         9.30224
     2019.92607       111.42428         9.35568
     2019.92881       119.12724         9.43900
     2019.93155       108.40920         9.21439
     2019.93429       117.21017         9.12383
     2019.93702       101.54913         9.31855
     2019.93976       127.16409         9.71252
     2019.94250        85.52605         9.53863
     2019.94524       118.04201         9.56399
     2019.94798       109.29298         9.32942
     2019.95071       103.00994         9.43176
     2019.95345       105.79990         9.31130
     2019.95619       111.77286         9.55221
     2019.95893       111.91382         9.44625
     2019.96167       107.20879         9.27779
     2019.96440       102.04975        10.37004
     2019.96714        84.66071        10.50952
     2019.96988        99.49967         9.43719
     2019.97262        93.48964         9.12473
     2019.97535        96.87560         9.24247
     2019.97809       102.03556         9.10843
     2019.98083       100.72852         9.06677
     2019.98357        97.18948         9.18994
     2019.98631        90.63145         9.32942
     2019.98904       100.69341         9.11658
     2019.99178       102.25637         9.48791
     2019.99452        98.69933         9.14103
     2019.99726       109.42129         9.37560
     2020.00000       112.24526         9.47070
     2020.00273       107.44922         9.51689
     2020.00547       113.27118         9.24609
     2020.00821        99.79614         9.41183
     2020.01095        95.16911         9.05047
     2020.01368        91.26907         9.26511
     2020.01642       103.22603         9.32760
     2020.01916       109.23999         9.90724
     2020.02190        97.41595         9.19719
     2020.02464        99.02292         9.23704
     2020.02737        93.67888         9.37017
     2020.03011       106.80584         9.32942
     2020.03285        92.44980         9.07039
     2020.03559        90.98377         9.18813
     2020.03833        95.20873         9.22798
     2020.04106        98.51369        10.50227
     2020.04380        82.87465        10.36461
     2020.04654        99.36361         9.33304
     2020.04928       100.95458         9.11930
     2020.05201       103.09654         9.08669
     2020.05475       102.76250         9.05681
     2020.05749       101.02646         9.15371
     2020.06023       102.89242         9.21892
     2020.06297        93.62339         9.07582
     2020.06570       105.73635         9.53863
     2020.06844       112.73931         9.82663
     2020.07118       104.14027         9.04050
     2020.07392       114.16724         9.43266
     2020.07666        94.97320         9.17817
     2020.07939       105.85116         9.15100
     2020.08213       115.68812         9.36021
     2020.08487       122.04808         9.57485
     2020.08761        95.45705         9.15009
     2020.09034        98.58001         9.17636
     2020.09308        99.98097         9.18360
     2020.09582        99.06593         9.26149
     2020.09856        95.92889         9.09032
     2020.10130        95.84286         9.17545
     2020.10403       104.42882         9.37108
     2020.10677        94.37178         9.28957
     2020.10951        90.00374         9.22345
     2020.11225        89.18971         9.21711
     2020.11772        79.67663         9.51599
     2020.12046        91.14359         9.21077
     2020.12320        89.13355         9.20171
     2020.12594        85.74152         9.22707
     2020.12867        87.37348         9.29590
     2020.13141        91.81744         9.20715
     2020.13415        90.07540         9.27960
     2020.13689       101.41136        10.17351
     2020.13963        91.05233        10.05939
     2020.14236        85.12829         9.35659
     2020.14510        98.77525         9.52776
     2020.14784        85.63421         9.22888
     2020.15058        89.05318         9.39281
     2020.15331        88.50414         9.23975
     2020.15605        88.94610         9.23794
     2020.15879        90.93106         9.34119
     2020.16153        87.71002         9.40549
     2020.16427        92.51899         9.27960
     2020.16700       104.97395         9.37017
     2020.16974        99.54491         9.19719
     2020.17248        98.47987         9.43991
     2020.17522       101.56983         9.21439
     2020.17796       101.46780         9.32942
     2020.18069        96.13476         9.43538
     2020.18343        96.13672         9.25515
     2020.18617        97.91968         9.16277
     2020.18891        89.31465        10.29487
     2020.19164        92.06561        10.47148
     2020.19438        80.65957        10.15177
     2020.19712        76.68053        10.27223
     2020.19986        91.57849        10.38363
     2020.21355        82.84130        10.74952
     2020.21629        89.21627        10.39087
     2020.21902        88.64823        10.28310
     2020.22176        89.22319        10.42982
     2020.22450        90.79315        10.62544
     2020.22724        94.92512        10.37729
     2020.22997        87.32108        10.41895
     2020.23271        97.20804        10.43706
     2020.23545        97.21900        10.42438
     2020.23819        84.70296        10.20521
     2020.24093        90.72293        10.17623
     2020.24366       104.29189        10.44612
     2020.24640        89.75085        10.32204
     2020.24914        97.70381        10.48235
     2020.25188        91.90977        10.34831
     2020.25462        89.38274        10.43253
     2020.25735        92.61670        10.53759
     2020.26009        97.01366        10.41804
     2020.26283        96.20562        10.74409
     2020.26557        94.17959        10.41442
     2020.26830        97.85755        10.30302
     2020.27104        92.37051        10.21789
     2020.27378       107.39147        10.48959
     2020.27652        82.97043        10.71782
     2020.27926       100.75840        10.52944
     2020.28199       103.31336        10.34649
     2020.28473        97.08332        10.20883
     2020.28747       105.25328        10.52220
     2020.29021       106.27024        10.64356
     2020.29295        94.71821        10.50499
     2020.29568       104.27617        10.30302
     2020.29842       103.32913        10.17804
     2020.30116        90.14509        10.24596
     2020.30390        97.42806        10.32204
     2020.30663        79.57402        10.55118
     2020.30937       101.60998        10.49140
     2020.31211       102.13394        10.42891
     2020.31485       100.85290        10.53035
     2020.31759        92.62787        10.65714
     2020.32032       113.78683        10.68431
     2020.32306        92.89279        10.84100
     2020.32580        97.64175        10.37548
     2020.32854        97.95271        10.46061
     2020.33128        89.81768        10.46061
     2020.33401       103.24964        10.58107
     2020.33675        99.97560        10.55208
     2020.33949        88.12156        10.34649
     2020.34223       106.03653        10.31298
     2020.34496       105.89249        11.55558
     2020.34770        89.53745        10.23238
     2020.35044        94.55941        11.45324
     2020.35318        90.54237        10.55390
     2020.35592       111.91034        10.48144
     2020.35865        77.44530        11.09096
     2020.36139       107.44726        10.72960
     2020.36413        93.52422        10.73503
     2020.36687        91.93519        10.48959
     2020.36961        84.89715        10.59827
     2020.37234        96.90611        10.68069
     2020.37508        80.05007        10.81201
     2020.37782        88.04603        10.63541
     2020.38056        93.76500        10.59465
     2020.38329        95.86096        10.86545
     2020.38603        95.43892        10.76582
     2020.38877        84.15388        11.95227
     2020.39151        92.37584        10.81835
     2020.39425        79.81881        10.90168
     2020.39698        86.92577        10.49050
     2020.40246        78.83369        10.88447
     2020.40520        92.72466        10.99043
     2020.40794        96.64762        11.12900
     2020.41067        92.08958        11.19965
     2020.41341        89.77454        10.88990
     2020.41615        96.70650        10.85096
     2020.42162        96.87043        11.69505
     2020.43805        77.90720        11.50305
     2020.44079        73.51316        12.00117
     2020.44353        95.11513        11.62441
     2020.44626        87.72109        11.56554
     2020.44900        67.52905        12.32088
     2020.45174        95.17501        11.75030
     2020.45448        84.14297        11.93868
     2020.45722        91.93694        11.64252
     2020.45995        84.00290        11.26757
     2020.46269        76.61386        11.45867
     2020.46543        95.78382        11.67060
     2020.46817        92.52878        11.40342
     2020.47091        91.06975        11.42244
     2020.47364       101.34471        11.36267
     2020.47912        98.57263        11.62984
     2020.48186       116.24560        11.28025
     2020.48459        89.74356        11.47588
     2020.48733        97.09452        11.37354
     2020.49007        81.76248        11.11270
     2020.49281       101.06644        11.50395
     2020.49555        88.75641        11.37988
     2020.49828       100.93937        10.94515
     2020.50102        99.52433        11.00402
     2020.50376        84.40829        10.84915
     2020.50650        92.02825        10.79933
     2020.50924        88.92822        10.71148
     2020.51197        99.62118        10.68250
     2020.51471       104.20714        10.69156
     2020.51745       108.60510        10.52672
     2020.52019       107.41307        10.84734
     2020.52292        95.87303        12.51560
     2020.52566        91.39399        12.59077
     2020.52840       112.09795        12.57809
     2020.53114       102.53891        12.58715
     2020.53388        87.63688        12.37431
     2020.53661       104.61584        12.48209
     2020.53935        87.37780        12.43952
     2020.54209        83.15676        12.54368
     2020.54483       103.14772        12.00298
     2020.54757       108.40769        11.72132
     2020.55030        97.23365        12.13340
     2020.55304       103.46161        11.99936
     2020.55852       114.89654        12.09899
     2020.56125        98.91950        11.97400
     2020.56399        84.02046        12.56269
     2020.56673       111.55542        11.71226
     2020.56947       116.28038        11.88525
     2020.57221       117.85535        11.79830
     2020.57494       103.06331        12.03559
     2020.57768       112.44527        11.63347
     2020.58042       116.32123        12.14155
     2020.58316       132.97919        12.73206
     2020.58590       101.83316        11.76660
     2020.58863       120.16912        12.35982
     2020.59137        90.08308        11.93959
     2020.59411       102.28104        11.86623
     2020.59958        94.96297        12.35348
     2020.60232       106.27593        11.97672
     2020.60506       110.23789        11.71317
     2020.60780        86.64485        12.14336
     2020.61054        96.65582        12.26473
     2020.61327       138.01878        12.27922
     2020.61601       107.33674        12.31544
     2020.61875       115.73670        12.29733
     2020.62149        88.09366        12.54549
     2020.62423       106.21263        12.84617
     2020.62696       112.39359        13.24014
     2020.62970       119.47955        13.20392
     2020.63244       104.93251        12.29461
     2020.63518       131.74348        12.95304
     2020.63791       112.42744        14.06884
     2020.64065       103.35740        11.85808
     2020.64339       103.59636        12.10533
     2020.64613        90.79932        13.18218
     2020.64887       115.87229        12.21582
     2020.65160        85.49525        12.58805
     2020.65434        86.79121        11.78834
     2020.65708       101.33017        11.88706
     2020.65982        86.67013        13.08346
     2020.66256       101.41310        12.71123
     2020.66529       123.22806        12.87606
     2020.66803       110.76802        12.13793
     2020.67077        98.53298        12.89146
     2020.67351       113.81395        12.13159
     2020.67624       109.16891        13.73193
     2020.67898       105.20987        12.33627
     2020.68172       105.36483        12.29099
     2020.68446        87.78879        12.04283
     2020.68720        86.97776        12.63424
     2020.68993        77.16572        12.45673
     2020.69267        94.73168        12.10985
     2020.69541        98.47764        12.37160
     2020.69815        94.22260        12.09446
     2020.70089        85.26557        12.61160
     2020.70362        81.83353        12.36254
     2020.70636        93.90949        13.02912
     2020.70910       100.42845        13.62415
     2020.71184       101.60742        12.31001
     2020.71457        82.27038        14.35413
     2020.71731        98.38534        12.82353
     2020.72005        81.62230        12.62428
     2020.72279        76.67426        12.70670
     2020.72553        84.39323        12.22125
     2020.72826        90.15319        13.25826
     2020.73100        98.77715        13.85329
     2020.73374        97.93311        13.44392
     2020.73648        96.16308        12.65055
     2020.73921        88.18704        12.49386
     2020.74195       103.43600        12.63515
     2020.74469        84.87596        12.64239
     2020.74743        92.07992        12.87878
     2020.75017        90.34889        12.55364
     2020.75290        86.55185        12.73930
     2020.75564        87.12681        12.25839
     2020.75838        95.86977        12.78640
     2020.76112        85.65173        12.87697
     2020.76386        96.29570        12.60798
     2020.76659       113.74066        12.63787
     2020.76933        65.02962        18.70593
     2020.77207       104.73158        12.62428
     2020.77481       125.46755        13.88046
     2020.77754       106.09351        12.62790
     2020.78028       115.46047        13.91125
     2020.78302       101.47943        13.33796
     2020.78576        85.56839        12.51288
     2020.78850       100.96836        12.84798
     2020.79123        92.99532        12.83440
     2020.79397       123.55828        13.05991
     2020.79671       100.19224        12.77644
     2020.79945        89.19320        12.76104
     2020.80219        89.09817        12.64330
     2020.80492       108.88713        12.96301
     2020.80766        91.37209        13.24558
     2020.81040        95.45405        13.08437
     2020.81314       123.24102        12.90595
     2020.81587        81.96898        12.72934
     2020.81861       105.71994        13.17041
     2020.82135        86.82890        12.87787
     2020.82409        99.76386        12.50473
     2020.82683        85.19283        12.46307
     2020.82956        95.87779        12.87334
     2020.83230        94.37775        12.80632
     2020.83504        84.18371        12.49024
     2020.83778        92.27267        12.76194
     2020.84052        76.68864        14.05797
     2020.84325       111.42560        13.28362
     2020.84599        87.35556        12.60707
     2020.84873        78.83952        13.65585
     2020.85147       112.28449        12.57990
     2020.85420       100.45445        12.52556
     2020.85694       107.07041        12.42684
     2020.85968       104.86137        13.38052
     2020.86242        99.14733        13.72015
     2020.86516        95.37930        13.81525
     2020.86789       113.46826        14.54523
     2020.87063        90.80022        14.05344
     2020.87337       119.40918        14.09601
     2020.87611        75.79514        14.41119
     2020.87885       115.49311        13.93933
     2020.88158        95.47107        15.76065
     2020.88432        88.97903        14.00001
     2020.88706        93.40699        13.73193
     2020.88980        85.91296        13.60423
     2020.89253        91.84892        13.20935
     2020.89527        97.61888        13.92122
     2020.89801        93.02884        13.02731
     2020.90075        85.06980        13.86144
     2020.90349        98.07577        13.54083
     2020.90622        89.90673        13.66400
     2020.90896        95.01069        13.40588
     2020.91170       105.61565        13.18490
     2020.91444        85.73161        13.14142
     2020.91718        85.55658        13.68030
     2020.91991        89.05054        13.44845
     2020.92265        80.30250        13.73555
     2020.92539        79.62746        12.99199
     2020.92813        77.03643        13.16588
     2020.93086        99.56639        13.57977
     2020.93360       100.25035        13.23743
     2020.93634        67.58431        13.65857
     2020.93908       108.25127        13.00376
     2020.94182        71.31624        13.35245
     2020.94455        80.79820        13.02912
     2020.94729        77.83516        13.08346
     2020.95003        82.86512        14.50357
     2020.95277        78.06308        13.18490
     2020.95551        86.90705        14.08424
     2020.95824        92.24201        13.88499
     2020.96098        79.61597        12.91138
     2020.96372        81.46193        13.15863
     2020.96646        80.32690        14.15760
     2020.96919        78.67586        13.52543
     2020.97193        82.51782        13.37328
     2020.97467        95.83078        13.99276
     2020.97741        81.54574        13.06716
     2020.98015        74.30271        13.18852
     2020.98288        81.26067        13.05357
     2020.98562        94.98963        13.39139
     2020.98836        76.15059        13.06988
     2020.99110        94.98755        13.75276
     2020.99384        89.74352        13.02097
     2020.99657       110.47248        13.69389
     2020.99931        94.27244        13.35969
     2021.00205        92.15040        13.74370
     2021.00479       104.22937        12.85885
     2021.00752       111.39533        13.18490
     2021.01026        96.34329        14.59776
     2021.01300        81.08025        14.33421
     2021.01574        70.05221        14.49179
     2021.01848        78.07518        12.87334
     2021.02121        86.99614        13.46838
     2021.02395        95.85810        12.97025
     2021.02669        81.30706        13.10973
     2021.02943        92.73202        13.52181
     2021.03216        96.58199        12.77644
     2021.03490       100.41795        13.80348
     2021.03764        95.19591        14.12862
     2021.04038        80.94087        14.08514
     2021.04312       127.64184        13.31350
     2021.04585        85.73180        14.27353
     2021.04859        86.31176        13.75910
     2021.05133        83.31472        13.85782
     2021.05407        98.51268        13.63502
     2021.05681       114.81165        13.24648
     2021.05954       112.19861        13.48287
     2021.06228        94.13157        13.23109
     2021.06502       101.02553        13.79261
     2021.06776       109.04650        13.58249
     2021.07049        94.96846        13.45660
     2021.07323        84.80642        13.41403
     2021.07597        89.98538        13.60060
     2021.07871        95.27834        13.47471
     2021.08145        86.81931        13.89133
     2021.08418        88.42927        13.71200
     2021.08692        83.91123        13.75729
     2021.08966        92.69919        13.12241
     2021.09240        89.12515        13.58974
     2021.09514        89.82812        13.10067
     2021.09787       106.34908        13.71563
     2021.10061        96.79404        13.30807
     2021.10335        89.58200        13.20663
     2021.10609        83.89197        13.05086
     2021.10882        87.50193        13.33071
     2021.11156        82.93089        13.44211
     2021.11430        81.61085        13.37509
     2021.11704        78.82881        13.48921
     2021.11978        79.74778        13.68846
     2021.12251       106.12274        13.11788
     2021.12525       103.18570        13.46656
     2021.12799        79.99566        13.62325
     2021.13073        83.63662        13.63683
     2021.13347        86.12659        13.52543
     2021.13620        91.40155        13.20210
     2021.13894        86.23551        13.41856
     2021.14168        92.84247        12.59077
     2021.14442        91.36044        13.85963
     2021.14715        73.75240        12.92134
     2021.14989        84.45836        12.97206
     2021.15263        82.93732        12.99470
     2021.15537        88.85728        12.81900
     2021.15811        89.37525        12.77100
     2021.16084       101.27521        13.00557
     2021.16358        77.39117        13.14505
     2021.16632        91.65113        12.82896
     2021.16906        93.92609        13.00829
     2021.17180       104.52506        13.54174
     2021.17453        76.62102        13.75276
     2021.17729        90.43199        13.05357
     2021.18001        93.69794        14.04529
     2021.18275       106.86291        13.43124
     2021.18548        82.03187        12.88331
     2021.18822        77.71283        13.10157
     2021.19096        67.54279        12.81719
     2021.19370        93.44275        14.28983
     2021.19644        88.23072        12.95576
     2021.19917        81.22668        13.23652
     2021.20191        90.97464        12.49296
     2021.20465        80.39360        12.90323
     2021.20739        76.35956        13.01191
     2021.21013       111.19353        12.75832
     2021.21286       101.96749        13.78265
     2021.21560        89.98745        12.91591
     2021.21834        86.99541        12.79455
     2021.22108        77.09238        12.64149
     2021.22381        94.49234        12.48752
     2021.22655        83.47830        12.91953
     2021.22929        90.77626        12.39695
     2021.23203       106.71822        12.30548
     2021.23477       102.04319        12.51650
     2021.23750       105.75915        12.26110
     2021.24024        91.76911        13.54445
     2021.24298        93.95307        12.35077
     2021.24572        91.72903        12.36616
     2021.25119        95.30196        12.30910
     2021.25393        94.28692        12.49386
     2021.25667        91.36088        13.06897
     2021.25941        90.07085        12.27016
     2021.26214        95.47181        12.53100
     2021.26488       102.30777        12.63153
     2021.26762       121.08073        17.18348
     2021.27036       118.35869        17.69609
     2021.27310       103.42166        13.08165
     2021.27583        84.85962        12.92316
     2021.27857       108.26558        12.25476
     2021.28131        93.22054        12.31544
     2021.28405       102.94450        12.22035
     2021.28679        95.71447        12.37250
     2021.28952        97.09843        12.35077
     2021.29226        95.49639        12.89146
     2021.29500       108.64535        12.52284
     2021.29774        97.47932        12.64783
     2021.30047       130.61328        14.86584
     2021.30321       123.34824        13.18580
     2021.30595        89.22620        13.27003
     2021.31690       106.77405        12.64330
     2021.31964       101.93401        12.69945
     2021.32238       105.80997        13.07350
     2021.32512       124.89794        13.96107
     2021.32785       102.77190        14.15216
     2021.33059       114.20786        14.33058
     2021.33333       109.71182        12.86157
     2021.33607        92.20179        13.84604
     2021.33880       100.58475        12.88240
     2021.34154       114.03171        13.47562
     2021.34428        85.19767        15.17015
     2021.34702       115.85563        14.04348
     2021.34976        96.07660        13.48830
     2021.35249        87.73556        13.53449
     2021.35523        94.42952        14.26809
     2021.35797       109.28948        14.04982
     2021.36071        92.97144        13.90763
     2021.36344        94.96841        13.68846
     2021.36618        92.45937        14.90388
     2021.36892        98.05733        14.53617
     2021.37166        95.29329        13.87774
     2021.37440       121.04226        15.28517
     2021.37713        99.68322        14.34507
     2021.37987        75.49618        14.29164
     2021.38261        87.63414        19.78369
     2021.38535        80.18110        18.41792
     2021.38809       105.90807        14.99445
     2021.39082        97.71703        15.22449
     2021.39356        98.76699        14.79610
     2021.39630        74.60195        14.72727
     2021.39904        94.32391        14.53708
     2021.40177        84.35788        14.72274
     2021.40451        88.70884        17.36824
     2021.40725       104.89480        15.07415
     2021.40999       114.09076        14.20016
     2021.41273        92.65073        14.96637
     2021.41546        97.15669        14.31881
     2021.41820       100.48565        15.38751
     2021.42094        97.29961        14.12590
     2021.42368        92.77657        14.67293
     2021.42642        97.91154        14.46462
     2021.42915       104.68550        14.79882
     2021.43189        87.04546        13.92937
     2021.43463        67.92442        14.23730
     2021.43737        84.13339        14.54795
     2021.44010       100.76335        15.06147
     2021.44284       130.85731        14.49179
     2021.44558       110.83127        14.30975
     2021.44832        84.14223        14.32062
     2021.45106        90.73020        14.41119
     2021.45379       106.95116        14.30341
     2021.45653       114.79012        14.25903
     2021.45927       100.42808        13.84152
     2021.46201        85.01004        13.55985
     2021.46475        96.49501        13.57434
     2021.46748       104.96197        14.13948
     2021.47022       129.58893        15.21181
     2021.47296       111.68789        18.80646
     2021.47570        84.80386        18.43060
     2021.47843       124.73182        18.46411
     2021.48117        96.29478        18.97944
     2021.48391       103.96274        17.48597
     2021.48665       124.38670        18.79106
     2021.48939       145.39367        18.98940
     2021.49212       120.94963        19.72300
     2021.49486       119.61459        16.85924
     2021.49760       132.93155        18.15889
     2021.50034       129.17851        17.32657
     2021.50308       164.74348        18.33822
     2021.50581       109.17744        19.51289
     2021.50855       129.51740        17.55299
     2021.51129       106.79436        16.87283
     2021.51403        90.38333        17.76764
     2021.51676       120.37929        16.94347
     2021.51950       120.25525        17.59103
     2021.52224        89.97421        17.16989
     2021.52498       126.40417        16.98513
     2021.52772       129.69014        18.18244
     2021.53045       138.61510        17.22967
     2021.53319       139.98906        17.85821
     2021.53593       125.31002        21.19111
     2021.53867       114.89998        22.16653
     2021.54141       150.30495        17.97142
     2021.54414       120.75091        18.15437
     2021.54688       110.58987        18.17610
     2021.54962       107.04583        17.79572
     2021.55236       108.18980        16.81124
     2021.55509       112.11276        18.37173
     2021.55783       110.69572        17.53760
     2021.56057       108.69768        17.41895
     2021.56331       128.03364        17.91798
     2021.56605       128.31261        17.25774
     2021.56878       110.77157        17.73232
     2021.57152       151.25453        20.34521
     2021.57426        85.48549        18.46230
     2021.57700       101.91445         7.68108
     2021.57974       104.82642         5.00388
     2021.58247        98.78638         5.00570
     2021.58521       106.19934         4.96222
     2021.58795       104.72330         4.96675
     2021.59069       100.69327         4.99302
     2021.59342       108.34223         5.12525
     2021.59616       100.33019         5.18864
     2021.59890       103.73015         5.02109
     2021.60164       111.36011         5.11166
     2021.60438       102.44808         4.91422
     2021.60711       103.47204         4.99845
     2021.60985       105.25100         4.95407
     2021.61259       101.37996         5.07362
     2021.61533       100.31092         5.08449
     2021.61807       101.15389         4.90969
     2021.62080       103.03785         4.98577
     2021.62354       102.25481         5.03287
     2021.62628       102.32077         5.11981
     2021.62902       106.79374         5.16691
     2021.63175       110.55970         5.08177
     2021.63449       104.56666         4.98668
     2021.63723       105.23662         5.18683
     2021.63997       102.79758         5.04826
     2021.64271       110.19555         5.01294
     2021.64544       104.30051         4.93415
     2021.64818       102.20847         4.94954
     2021.65092       114.47943         5.05641
     2021.65366       102.36539         4.94230
     2021.65639       102.82036         4.90879
     2021.65913       104.25232         4.94502
     2021.66187       103.52328         5.01566
     2021.66461       102.81324         4.89701
     2021.66735       109.63521         4.88705
     2021.67008       102.95317         4.96675
     2021.67282       112.04713         5.11166
     2021.67556       101.64009         5.18412
     2021.67830       104.30305         5.08177
     2021.68104       106.91902         5.00026
     2021.68377       108.05798         4.98034
     2021.68651       103.83394         5.15061
     2021.68925       107.92990         5.00388
     2021.69199       108.54786         4.91422
     2021.69472       102.36183         4.93143
     2021.69746       105.81079         5.02834
     2021.70020       107.66975         4.95860
     2021.70294       107.71071         4.90788
     2021.70568       110.25968         5.04283
     2021.70841       109.11864         4.94592
     2021.71115       114.48560         5.05641
     2021.71937       105.92849         4.96041
     2021.72210        99.99045         4.89883
     2021.72484       105.60541         5.09174
     2021.72758       102.69237         4.96222
     2021.73032        99.04533         5.24751
     2021.73305       106.77730         4.94411
     2021.73579       115.20926         5.18502
     2021.73853       101.64822         5.27831
     2021.74127       113.60918         5.03377
     2021.74401       101.76315         4.98668
     2021.74674       110.03611         5.05007
     2021.74948       103.95007         5.04917
     2021.75222       102.49603         5.08902
     2021.75496       106.34899         5.00479
     2021.75770       116.15996         5.10894
     2021.76043       107.15292         5.32359
     2021.76317       106.88388         5.13883
     2021.76591       101.01784         4.93324
     2021.76865       102.25181         4.98849
     2021.77138       103.21577         4.92418
     2021.77412       111.14773         5.13430
     2021.77686       108.34869         4.95860
     2021.77960       108.11665         4.90879
     2021.78234       104.24162         5.06185
     2021.78507       110.37858         4.94592
     2021.78781       113.24254         4.99573
     2021.79055       105.07350         5.11709
     2021.79329       108.62746         4.99664
     2021.79603       106.67143         4.89973
     2021.79876       102.67039         4.97400
     2021.80150       111.02735         5.21763
     2021.80424       101.99031         5.23121
     2021.80698       103.17228         5.16510
     2021.80971       103.98724         4.95679
     2021.81245       111.76220         5.19136
     2021.81519       111.41016         4.91513
     2021.81793       109.13712         4.95407
     2021.82067       110.38409         5.15876
     2021.82340       107.22405         5.03649
     2021.82614       103.74601         5.03015
     2021.82888       111.33897         5.02290
     2021.83162       114.31493         5.03196
     2021.83436       119.55390         5.46035
     2021.83709       104.66186         5.18412
     2021.83983       101.87582         5.20766
     2021.84257        98.78278         5.37340
     2021.84531       106.17975         5.12343
     2021.84804       100.27671         5.19951
     2021.85078       104.52167         5.05641
     2021.85352       102.73263         5.01566
     2021.85626       102.68059         5.00751
     2021.85900       105.83356         4.96403
     2021.86447       100.97548         5.09536
     2021.86721        96.46544         5.20495
     2021.86995       102.59040         5.18049
     2021.87269       107.77437         5.27287
     2021.87542       100.23133         5.06004
     2021.87816       100.70929         5.00570
     2021.88090       109.72625         5.20947
     2021.88364       103.45622         5.12253
     2021.88637        94.61518         4.91694
     2021.88911        92.71214         4.91060
     2021.89185        91.19110         5.19227
     2021.89459        95.49706         5.10623
     2021.89733        98.30003         5.02653
     2021.90006        97.93199         4.98034
     2021.90280        97.91295         5.16781
     2021.90554        97.11891         5.01204
     2021.90828        95.35587         5.02109
     2021.91102        98.47184         5.07181
     2021.91375        97.98480         4.98939
     2021.91649        99.51976         4.96222
     2021.91923        95.44772         5.07272
     2021.92197        96.28069         5.18230
     2021.92470        91.65465         5.13340
     2021.92744       100.17461         5.06275
     2021.93018        91.99257         5.06638
     2021.93292        99.58753         5.23031
     2021.93566       107.04450         5.23755
     2021.93839       105.10346         5.15694
     2021.94113       107.04442         5.27740
     2021.94387       111.29538         5.08449
     2021.94661       100.18334         5.05551
     2021.94935       103.09631         5.04102
     2021.95208       106.61427         5.04373
     2021.95482       102.20723         5.21581
     2021.95756       103.72619         5.13611
     2021.96030        97.00516         5.16510
     2021.96303       102.31512         5.14698
     2021.96577        97.92508         5.15785
     2021.96851        96.78104         5.30457
     2021.97125        94.88400         5.13611
     2021.97399       106.34097         5.16057
     2021.97672       103.71193         5.20495
     2021.97946       104.75289         5.12525
     2021.98220       105.37385         5.16872
     2021.98494       102.38481         5.19770
     2021.98767       110.64678         5.16510
     2021.99041       105.43274         4.99936
     2021.99315       100.35170         5.13611
     2021.99589       108.87166         5.06819
     2021.99863        95.05463         5.06275
     2022.00136       104.43459         5.09808
     2022.00410       102.96155         5.07996
     2022.00684        89.45251         5.06366
     2022.00958        90.90147         5.07362
     2022.01232        84.71544         5.23936
     2022.01505        96.76740         5.22487
     2022.01779       105.25336         5.18230
     2022.02053       102.75032         5.01204
     2022.02327        98.05728         5.37521
     2022.02600        87.98225         5.15151
     2022.02874        95.94721         5.13068
     2022.03148        93.73117         5.28555
     2022.03422        91.61213         5.15151
     2022.03696        92.85510         5.12977
     2022.03969        90.26806         5.07453
     2022.04243        96.00202         5.06275
     2022.04517        95.75498         5.01656
     2022.04791        98.36294         4.99302
     2022.05065        92.27091         4.99030
     2022.05338        96.81087         5.06728
     2022.05612        87.88383         5.09536
     2022.05886        85.96279         5.06094
     2022.06160        89.22275         5.08177
     2022.08350        96.92745         5.18321
     2022.08624        97.49041         4.95860
     2022.08898        97.37238         5.05732
     2022.09171        92.98034         4.99573
     2022.09445        94.79930         5.01566
     2022.09719        90.06726         4.98396
     2022.09993        94.25322         5.10713
     2022.10266        97.04319         5.21763
     2022.10540        93.76215         5.08177
     2022.10814       102.51511         5.05007
     2022.11088        98.89207         5.00388
     2022.11362       103.00204         4.98487
     2022.11635       103.03500         4.95136
     2022.11909        97.83096         4.97581
     2022.12183        94.95192         5.10623
     2022.12457       100.02488         5.11800
     2022.12731        97.61185         5.04011
     2022.13004        88.09981         4.98939
     2022.13278        91.66277         4.93324
     2022.13552        95.65873         4.99030
     2022.13826       103.40670         5.00841
     2022.14099        94.89566         5.18049
     2022.14373        94.27662         5.02562
     2022.14647       104.18358         4.96313
     2022.14921       101.83854         5.20495
     2022.15195        99.15851         5.16872
     2022.15468        97.31847         5.01113
     2022.15742       102.49443         5.05189
     2022.16016        99.38939         5.12434
     2022.16290        97.09035         5.04464
     2022.16564        94.51132         4.96947
     2022.16837        96.00928         4.98124
     2022.17111        96.13124         4.95951
     2022.17385       104.57520         5.10804
     2022.17659        97.28817         5.04373
     2022.17932        93.06813         4.97128
     2022.18206        96.24809         4.96494
     2022.18480        93.06705         4.96041
     2022.18754        98.25601         5.25929
     2022.19028        98.36298         5.07181
     2022.19301        98.61594         5.06094
     2022.19575       103.86390         5.20947
     2022.19849        97.11886         5.06547
     2022.20123       100.78082         5.09626
     2022.20397       106.37679         5.02381
     2022.20670       101.37375         5.14336
     2022.20944        96.57771         5.11709
     2022.21218       107.10567         5.02290
     2022.21492        99.17864         4.97943
     2022.21765        91.70460         4.97400
     2022.22039        98.92756         4.95226
     2022.22313        91.61352         5.15876
     2022.22587        94.35048         5.04917
     2022.22861       100.86245         5.07091
     2022.23134       105.28641         5.01566
     2022.23408       104.65737         5.05189
     2022.23682       105.74733         5.16147
     2022.23956       100.20029         5.01747
     2022.24230       103.82826         5.07272
     2022.24503       104.97322         5.08268
     2022.24777       104.04118         5.00570
     2022.25051        94.40214         4.99121
     2022.25325        99.88711         5.01838
     2022.25598       107.60207         5.19046
     2022.25872       104.83703         5.12706
     2022.26146        96.72299         4.99573
     2022.26420        99.42795         5.05370
     2022.26694       102.85292         5.46488
     2022.26967       103.39188         5.00388
     2022.27241       102.46984         5.05460
     2022.27515       100.34880         5.25748
     2022.27789       109.04276         5.12162
     2022.28062        95.14673         5.03015
     2022.28336       100.18669         4.97853
     2022.28610       105.69465         5.09264
     2022.28884        99.08961         5.10713
     2022.29158        95.91858         5.04283
     2022.29431        97.84854         5.05732
     2022.29705        94.30650         5.05370
     2022.29979       101.26146         5.02834
     2022.30253       100.34942         5.13702
     2022.30527        98.64739         5.16691
     2022.30800        94.65135         5.05098
     2022.31074       100.73331         5.04826
     2022.31348       101.01527         5.07272
     2022.31622        96.59323         5.03196
     2022.31895        81.17120         5.11257
     2022.32169        97.70716         5.46488
     2022.32443       101.03212         5.05641
     2022.32717        90.55808         5.14608
     2022.32991       100.78105         4.95498
     2022.33264        97.41901         5.22034
     2022.33538        93.82697         5.18683
     2022.33812        94.66593         5.19136
     2022.34086       101.07189         5.05823
     2022.34360        93.44386         5.12525
     2022.34633       101.02082         5.12615
     2022.34907        94.43078         5.01928
     2022.35181       101.75474         5.03558
     2022.35455        97.16870         5.15694
     2022.35728        94.84667         5.04736
     2022.36002        99.92863         5.13249
     2022.36276        99.40159         5.02743
     2022.36550        93.55055         5.00932
     2022.36824        97.95852         5.13068
     2022.37097        94.91448         5.03196
     2022.37371        88.54944         5.02924
     2022.37645        90.90240         5.15966
     2022.37919        98.11236         5.09717
     2022.38193        93.22033         5.12796
     2022.38466        91.71829         5.10442
     2022.38740        82.66225         5.03287
     2022.39014        96.48821         5.07543
     2022.39288        97.08217         5.08721
     2022.39561        94.89614         5.07543
     2022.39835        96.25110         5.12977
     2022.40109       101.54306         5.13521
     2022.40383       105.73302         5.17778
     2022.40657       100.66799         5.00570
     2022.40930        93.48295         5.08902
     2022.41204        92.71391         5.06547
     2022.41478       101.07687         5.04826
     2022.41752       101.31183         5.21038
     2022.42026        93.04580         5.20585
     2022.42299        95.74076         4.92328
     2022.42573        97.33672         5.07996
     2022.42847        98.11068         4.98215
     2022.43121        99.34464         5.13974
     2022.43394       102.35861         5.19227
     2022.43668        99.99357         5.15876
     2022.43942        92.70353         5.15785
     2022.44216       101.28149         4.97943
     2022.44490       106.04246         5.16057
     2022.44763       104.07242         4.94139
     2022.45037       101.02538         4.88886
     2022.45585        95.93630         5.11619
     2022.45859        83.78527         4.91785
     2022.46132        96.35223         4.92056
     2022.46406        92.05519         4.88796
     2022.46680        95.25315         4.98215
     2022.46954        96.08812         5.07272
     2022.47501       102.72704         4.96766
     2022.47775        95.51400         5.05551
     2022.48049        97.53296         4.95317
     2022.48323       103.94993         5.04283
     2022.48596       110.02389         5.07906
     2022.48870        97.32285         4.90154
     2022.49144        92.68081         4.86260
     2022.49418        97.73477         5.06185
     2022.49692        97.51174         4.97128
     2022.49965        97.77170         4.98577
     2022.50239        89.70866         5.22668
     2022.50513        95.38462         5.25385
     2022.50787       106.85559         5.27378
     2022.51060        92.79555         5.05098
     2022.51334        93.95351         5.16691
     2022.51608        95.96447         5.09355
     2022.51882        90.89643         4.94230
     2022.52156        92.09740         4.97037
     2022.52429       101.56836         4.93415
     2022.52703        98.39732         4.96585
     2022.52977       112.94628         5.08630
     2022.53251       100.20224         4.97219
     2022.53525        94.65921         5.00026
     2022.53798        89.92017         4.87709
     2022.54072        93.36813         4.95407
     2022.54346        96.59709         4.94139
     2022.54620        98.04506         5.13340
     2022.54893        98.01702         4.93777
     2022.55167       101.11498         4.98034
     2022.55441       103.97294         4.98305
     2022.55715       105.00990         5.02019
     2022.55989        94.41787         4.90969
     2022.56262        93.03583         4.89792
     2022.56810        94.62775         4.95136
     2022.57084        97.38171         4.92962
     2022.57357       103.01168         5.05460
     2022.57631        89.87664         4.94139
     2022.57905        94.02060         4.94592
     2022.58179       100.20956         5.11257
     2022.58453       106.53953         5.31725
     2022.58726        96.27249         5.21491
     2022.59000       103.17545         5.25566
     2022.59274        95.02441         4.86260
     2022.59548       101.00137         4.96313
     2022.59822        92.08734         5.08630
     2022.60095        95.73030         4.99755
     2022.60369        99.96326         4.98849
     2022.60643       106.38322         5.11619
     2022.60917        99.67518         4.99030
     2022.61190       110.80915         5.05189
     2022.61464       104.90111         4.92781
     2022.61738       105.86107         4.90335
     2022.62012        97.42203         4.88252
     2022.62286        92.98200         4.87618
     2022.62559       107.42296         5.01022
     2022.62833       112.53892         5.19679
     2022.63107       108.78888         4.97853
     2022.63381       116.43184         5.02109
     2022.63655       107.76681         4.85898
     2022.63928       115.02677         4.92328
     2022.64202       110.45173         5.19589
     2022.64476       110.37869         5.26200
     2022.64750       111.57665         5.01838
     2022.65023       110.99062         4.98849
     2022.65297       111.20458         5.19408
     2022.65571       112.08954         5.05551
     2022.65845       112.26750         4.97128
     2022.66119       107.74547         4.96132
     2022.66392       112.80643         4.86532
     2022.66666       104.80739         4.83633
     2022.66940       115.42935         4.80464
     2022.67214       120.63631         4.87800
     2022.67488       111.48128         5.01928
     2022.67761       114.97524         4.93777
     2022.68035       111.50220         4.88162
     2022.68309       111.35316         4.95226
     2022.68583       119.29412         5.22849
     2022.68856       117.09109         4.96313
     2022.69130       110.93805         4.85988
     2022.69404       113.08201         4.96766
     2022.69678       120.88997         5.13340
     2022.69952       104.29694         5.01838
