# ================= DQRFIT RESULTS ================
# INPUT FILE: series/JNPR.rad
# OUTPUT: LDETRENDED
# FILTER FUNCTION: f(t)
# f(t)=+line(t)+annual(t)+jumps(t)
# line(t)=+P 1+P 2*t
# annual(t)=+P 3*sin(2*pi*t+P 4)
# jumps(t)=+P 5*heav(t-1998.8301  )+P 6*heav(t-2007.2575  )
# heav(t)=(t<0?0:1)
# TOTAL OBSERVATIONS MTOT= 3379
# INITIAL TIME INTERVAL= 2007.4825 - 1997.9658 =  9.5168
# TOTAL OBSERVATIONS AFTER PREFILTER M= 3359
# TIME-SPAN= 2007.4825 - 1997.9658 =  9.5168
# OBSERVATIONS: USED M=  3359 REJECTED MTOT-M=    20 %USED=   99.4081
# N=  6 PARAMETERS
# MAXSIG= 175.00000
# MAXRES=  56.82960
# SCALE FACTOR FOR LENGTHS: SCL=  10.00000
# SCALE FACTOR FOR SIGMAS: SCLSIG=   1.00000
# CHI^2=   8930.218 DOF=  3353 CHI^2/DOF=   2.66335
# RMS=     11.800 SDEV=     11.802 MEAN=   -0.03862
#  P #       PARAMETER +-    SIGMA %error PARAMETER NAME
# P 1 =      2062.63064 +-  170.715   8.28 YZERO                              
# P 2 =        -0.53873 +-    0.085  15.86 SLOPE                              
# P 3 =         4.70035 +-    0.279   5.93 ANNUAL AMPLITUDE                   
# P 4 =         2.39881 +-    0.062   2.58 ANNUAL PHASE                       
# P 5 =        17.28888 +-    0.802   4.64 OFFSET 1998.8301                   
# P 6 =        -0.02932 +-    1.230 ****** OFFSET 2007.2575                   
#       T            LDETRENDED       SIG_OBS
     1997.96578         5.21126        10.79227
     1997.96851         6.41674        10.92609
     1997.97125         6.31821        10.86571
     1997.97399         4.62468        10.72209
     1997.97673        -4.26984        11.06807
     1997.97947         3.03163        10.68619
     1997.98220        -1.66389        11.03707
     1997.98494         3.08158        10.78248
     1997.98768         3.47606        10.58174
     1997.99042        16.21753        10.78085
     1997.99316         5.62401        11.06481
     1997.99589        -3.50652        10.82001
     1997.99863         7.40796        10.88040
     1998.00520        32.33050        24.75221
     1998.00684         9.27038        11.81878
     1998.00958        -5.75014        10.74821
     1998.01232       -10.02367        11.13009
     1998.01506         9.60981        11.10071
     1998.01780        -0.43572        11.79920
     1998.02053        -1.49024        11.78288
     1998.02327         7.27923        11.04849
     1998.02875         6.70318        11.52176
     1998.03149        -9.51134        12.07011
     1998.03422         1.00213        11.64579
     1998.03617        18.56618        17.95012
     1998.03970         4.05508        11.35530
     1998.04244        10.28456        12.11580
     1998.04517        24.59503        11.81552
     1998.04791         8.73951        11.36509
     1998.04938        24.50530        84.40916
     1998.05886        40.42041        11.52340
     1998.06160        24.10188        11.78451
     1998.06434         0.47236        11.49402
     1998.06708         8.02083        10.89998
     1998.09993        -5.26947        11.00116
     1998.10267       -37.02499        11.53319
     1998.10541       -40.29852        11.68823
     1998.10815       -11.34304        11.55440
     1998.11088        10.90943        11.45159
     1998.11362         3.58591        11.51034
     1998.11636        18.39238        11.24759
     1998.11910        10.43686        10.91304
     1998.12183        -1.93767        11.19700
     1998.12334       -16.75586        38.54242
     1998.12731         5.47328        10.79553
     1998.13005       -39.70624        11.98035
     1998.13826        -1.13582        11.12030
     1998.14100        -5.27134        10.75637
     1998.14374       -26.97187        11.76656
     1998.14648       -13.78539        10.84123
     1998.14921       -41.90992        11.51524
     1998.15195       -26.90344        11.53808
     1998.15469       -17.09997        11.15783
     1998.15743       -37.88549        10.99627
     1998.16016       -31.06702        11.35041
     1998.16290       -18.61354        10.91140
     1998.16564        -9.01607        10.92120
     1998.16838         3.14541        11.21822
     1998.18754        -8.64327        11.43364
     1998.19028        -9.81079        11.26881
     1998.19302        -2.51032        11.50055
     1998.19576       -10.90484        11.00279
     1998.19849        -5.76637        11.31777
     1998.20123        -3.02589        10.75473
     1998.20397        -8.59242        10.92283
     1998.20671        -8.75794        11.23943
     1998.20945        -7.40947        10.86081
     1998.21218       -16.16899        10.67150
     1998.21492       -12.75852        11.21169
     1998.21766         4.78996        11.02564
     1998.22040         0.05343        11.21985
     1998.22313        -9.55009        11.81226
     1998.22587       -18.12262        12.31980
     1998.22861       -57.18414        15.46299
     1998.23135       -58.10567        13.73799
     1998.23409        -5.40719        11.22964
     1998.23682        -4.69872        11.60010
     1998.23956        -3.77024        10.74005
     1998.24230       -12.79677        11.12846
     1998.24504        -9.10429        10.90488
     1998.24778        -1.75782        11.83674
     1998.25051        -7.40934        11.88569
     1998.25325       -13.36787        11.05665
     1998.25599       -10.49039        10.98811
     1998.25873        -1.53192        11.03870
     1998.26146        -9.23744        11.43853
     1998.26420       -15.59097        11.42058
     1998.26694        -5.34449        11.51360
     1998.26968        -3.31602        11.23617
     1998.27242        -2.39254        10.98811
     1998.27515       -17.54507        11.03870
     1998.27789        -0.73959        10.88856
     1998.28063         8.70888        10.71720
     1998.28337         6.81436        10.96363
     1998.28611        18.68683        11.93955
     1998.28884        -5.41969        11.00769
     1998.29158        -9.87322        10.93752
     1998.29432        -5.24974        10.69272
     1998.29706       -15.05727        10.66824
     1998.29979         1.01021        10.77595
     1998.30253         4.61668        10.90814
     1998.30527        -5.22984        10.74657
     1998.30801        -9.53137        10.82491
     1998.31075        -1.06189        10.54747
     1998.31348         7.90958        10.66987
     1998.31622        -3.51694        10.56706
     1998.31896        -7.73347        10.62907
     1998.32170       -12.04399        10.48546
     1998.32444        -1.75552        10.92120
     1998.32717       -19.20404        10.68619
     1998.32991       -11.57857        10.97668
     1998.33265         0.72491        10.81349
     1998.33539         7.23038        11.05339
     1998.33812         1.60886        10.89508
     1998.34086         5.35733        10.70577
     1998.34360        -0.68419        10.84123
     1998.34634        12.13228        11.15457
     1998.34908        15.77575        10.95057
     1998.35181         1.63123        11.33898
     1998.35455         2.74070        10.66661
     1998.35729         7.64818        10.72862
     1998.36003        -5.42035        10.50831
     1998.36277         3.81913        10.50341
     1998.36550         3.24560        10.49851
     1998.36824        -0.55092        10.79717
     1998.37098        -9.16145        10.87387
     1998.37372         1.66403        10.63723
     1998.37645         4.85050        10.74331
     1998.37860         2.49466        13.95504
     1998.38193        -1.05455        10.70251
     1998.38467        -3.94607        10.75147
     1998.38646        -9.18710        19.70776
     1998.39014       -12.06012        10.96363
     1998.39288        -3.40465        10.60949
     1998.39562        -8.57317        10.77595
     1998.39836       -16.83270        11.20026
     1998.40110       -10.44622        11.14478
     1998.40383        -5.48175        10.49851
     1998.40931        -1.74780        10.69598
     1998.41205         0.57168        10.80696
     1998.41478        -6.61985        10.58501
     1998.41752         0.05663        11.24922
     1998.42026        15.23310        11.25575
     1998.42300         3.58358        10.76779
     1998.42574        -2.63395        10.87387
     1998.42847        -5.96847        11.07297
     1998.43121         3.99300        11.10398
     1998.43395         8.56348        10.77105
     1998.43669        24.00195        10.99300
     1998.43943        14.31643        11.24106
     1998.44216        -2.65810        10.80043
     1998.44471        13.36828        11.75677
     1998.44764         7.62085        10.92446
     1998.45038         2.24933        10.72209
     1998.45311         4.29280        10.92936
     1998.45585        -3.80172        11.58704
     1998.45859        -2.08425        10.61438
     1998.46133        -5.34677        10.85265
     1998.46407         1.42970        10.77758
     1998.46680        -3.59982        10.77595
     1998.46954         0.43565        11.21495
     1998.47228        -2.48287        11.62131
     1998.47502        -7.23440        11.22311
     1998.47775        -4.71792        10.93425
     1998.48049         6.21555        11.22801
     1998.48323         2.45603        11.06481
     1998.48597       -18.60750        11.27370
     1998.48871        -7.54202        10.81512
     1998.49144        -9.42955        11.18068
     1998.49418        -6.89307        10.87224
     1998.49692        -8.63260        11.49892
     1998.49966       -12.70412        10.96526
     1998.50240        -7.93565        10.58501
     1998.50513        -4.16217        10.66334
     1998.50787        -8.77570        10.77105
     1998.51061        -6.22622        11.16926
     1998.51335        -8.04375        10.70741
     1998.51608       -10.66827        10.82001
     1998.51882         0.89720        11.22964
     1998.52156         9.23868        11.38141
     1998.52430        -7.14885        10.77758
     1998.52704       -13.80237        10.62581
     1998.52977        -7.21290        10.85755
     1998.53251       -16.69342        10.53442
     1998.53525        -2.19095        10.71720
     1998.53799        -6.61347        10.70251
     1998.54073        -5.89800        10.85918
     1998.54346       -14.95252        10.74331
     1998.54620         1.71695        10.55563
     1998.54894         4.50243        10.85102
     1998.55168        -3.59810        10.91467
     1998.55441         1.82638        10.87876
     1998.55700         0.78477        11.74698
     1998.55971         4.89323        11.97709
     1998.56263        -3.24320        11.14151
     1998.56537        -4.22472        10.78248
     1998.56810        -7.36125        10.97668
     1998.57084        -5.80177        10.85428
     1998.57358        -8.62330        10.69761
     1998.57632         4.86418        10.79880
     1998.57906       -12.06335        11.27044
     1998.58179         6.28813        10.85592
     1998.58453        -9.42940        10.91140
     1998.58727        -6.24692        10.48872
     1998.59001        -3.85445        10.86081
     1998.59274       -11.12097        10.67313
     1998.59548        -6.04450        10.73025
     1998.59822       -18.85802        10.95873
     1998.60370        -8.30207        10.77921
     1998.60643        -6.66660        10.54747
     1998.60917         6.63588        10.84286
     1998.61191         4.86935        10.83633
     1998.61465       -10.55017        10.51320
     1998.61739        -2.65070        10.83144
     1998.62012         8.13078        10.97831
     1998.62286         8.70025        11.20516
     1998.62560        -9.54127        10.90977
     1998.62834       -16.23380        10.62907
     1998.63107        -2.73832        10.75473
     1998.63381       -13.09285        10.53605
     1998.63592       -13.24071        15.15618
     1998.63911       -10.77999        11.55767
     1998.64203        -6.78442        10.58338
     1998.64476         0.39705        10.68129
     1998.64750       -12.01347        11.51197
     1998.65024       -21.00700        10.83470
     1998.65298        -4.75552        10.63560
     1998.65572       -10.13105        10.48546
     1998.65845       -15.89157        10.99953
     1998.66119        -9.73610        10.96036
     1998.66393        -7.20462        11.03217
     1998.66667        -2.45815        11.04359
     1998.66940         0.25133        10.58664
     1998.67214       -12.71620        10.97179
     1998.67488         9.10428        11.23943
     1998.67762        15.95975        11.04359
     1998.68036        30.02323        11.49076
     1998.68309        16.60870        11.06971
     1998.68583         8.93518        11.24759
     1998.68857        13.48565        11.92323
     1998.69131        15.47713        10.92936
     1998.69328        12.02919        17.78529
     1998.69678        14.47908        10.70904
     1998.69952        13.63255        10.80859
     1998.70226        14.20203        11.68823
     1998.70500         8.80650        10.81512
     1998.70773        15.95098        10.76779
     1998.71047       -10.55755        11.99177
     1998.71321        11.64593        11.26391
     1998.71595         3.96340        10.85265
     1998.71869        17.27288        10.69761
     1998.72142        -0.52765        10.65029
     1998.72416         2.62282        11.13988
     1998.72690        -3.02170        11.71434
     1998.72964         9.18277        11.10235
     1998.73238         4.82125        11.53972
     1998.73511         9.34472        11.12682
     1998.73785        18.65820        11.55277
     1998.74059         9.12767        10.97831
     1998.74333        15.68615        11.10071
     1998.74606        30.10762        11.50544
     1998.74880        31.43610        11.60826
     1998.75154        -0.47443        11.41895
     1998.75428         2.45405        11.27697
     1998.75702         1.97952        11.14804
     1998.75975         0.52700        11.33245
     1998.76249        12.04047        10.87224
     1998.76523        25.47895        11.35857
     1998.76797        12.83742        11.22638
     1998.77070        12.81690        11.52992
     1998.77344         3.85637        10.79553
     1998.77618        12.11585        10.97505
     1998.77892        13.35632        11.44669
     1998.78166        16.97180        11.85632
     1998.78439         8.25627        11.21006
     1998.78713        13.60975        11.20190
     1998.78987         8.07722        11.31287
     1998.79261        -3.83630        11.08113
     1998.79535        -3.12583        11.39610
     1998.79808         5.55665        11.11866
     1998.80082         4.26612        11.19700
     1998.80356        10.05560        11.10235
     1998.80630         3.52207        11.26065
     1998.80803         1.71901        22.92929
     1998.81177         4.99602        11.68823
     1998.81451        11.45150        11.79104
     1998.81725        24.68997        12.98891
     1998.81999        16.90545        11.60826
     1998.82272        30.84592        11.52503
     1998.82546        28.54840        11.36509
     1998.82815        37.27685        12.39324
     1998.83095        27.90835        11.26717
     1998.83368        34.31782        11.88080
     1998.83641        30.10530        11.77472
     1998.83915        32.43477        12.09622
     1998.84189        32.58025        11.15620
     1998.84463        29.86772        11.14314
     1998.84736        23.03820        10.99300
     1998.85010        35.91367        11.57725
     1998.85284        30.45915        11.92486
     1998.85558        27.36962        10.98647
     1998.85832        25.27010        11.05665
     1998.86105        42.21657        12.59560
     1998.86379        11.52405        12.65762
     1998.86653        24.07152        11.11866
     1998.86927        27.29300        10.96852
     1998.87201        35.57747        10.81838
     1998.87474        41.65995        10.87876
     1998.87748        12.87442        11.20026
     1998.88022        22.96190        10.77105
     1998.88296        27.08637        10.73515
     1998.88569        33.43785        10.77595
     1998.88843        47.18532        10.84123
     1998.89117        38.00480        11.38468
     1998.89391        11.78727        11.25575
     1998.89665        16.11875        11.06971
     1998.89938        40.36022        11.02075
     1998.90212        27.61270        10.96036
     1998.90486        38.24017        10.87550
     1998.90760        19.24165        13.19780
     1998.91034        45.63712        11.03054
     1998.91307        30.85960        11.91507
     1998.91855        44.38955        10.96526
     1998.92129        40.25302        11.14151
     1998.92402        47.83650        11.66375
     1998.92676        47.59997        10.97995
     1998.92950        47.42845        10.77105
     1998.93224        37.61492        10.79880
     1998.93498        34.54140        11.34225
     1998.93771        20.62287        10.90977
     1998.94045        23.85735        10.88366
     1998.94319        43.56382        10.95547
     1998.94593        33.68130        10.89182
     1998.94867        32.60677        11.09255
     1998.95140        37.03325        11.99993
     1998.95414        37.90372        12.20883
     1998.95688        45.53820        10.90161
     1998.95962        33.23567        11.37815
     1998.96235        26.33015        11.61315
     1998.96509        22.87762        11.25575
     1998.96783        43.55810        11.29002
     1998.97057        28.95657        10.96199
     1998.97331        39.01905        11.54788
     1998.97604        43.05352        11.02891
     1998.97878        36.07900        11.32919
     1998.98152        41.50447        11.91833
     1998.98426        38.93895        11.46301
     1998.98700        40.94442        11.34877
     1998.98973        46.49990        11.81715
     1998.99247        20.03237        10.86897
     1998.99521        35.21185        11.40589
     1998.99730        31.68497        16.64128
     1999.00459        33.75990        43.51016
     1999.00616        20.09975        12.04400
     1999.00890        25.89722        11.81062
     1999.01164        22.99270        11.49892
     1999.01437        23.13417        11.53319
     1999.01711        39.15765        11.74045
     1999.01985        21.16512        11.01585
     1999.02259         7.55460        11.30961
     1999.02533        15.22907        11.64253
     1999.02806        23.18355        12.22515
     1999.03080        23.43902        11.88896
     1999.03354        39.49150        12.08806
     1999.03628        21.78797        12.12560
     1999.03901        32.95245        12.59071
     1999.04175        18.23592        12.56786
     1999.04449        18.54340        11.56093
     1999.04723        13.45687        11.79267
     1999.04997        -8.02365        15.68657
     1999.05270        24.96482        12.42425
     1999.05544        17.50430        11.86611
     1999.05818        15.19877        11.51197
     1999.06092        11.70625        11.50055
     1999.06366        -4.94728        13.87344
     1999.06639       -38.01780        15.76164
     1999.06913       -31.22433        15.48584
     1999.07187       -32.92085        14.06438
     1999.07461        18.19762        13.86528
     1999.07734        12.29910        12.97422
     1999.08008        17.42457        11.67843
     1999.08282        32.89505        12.40466
     1999.08556        35.23352        12.15171
     1999.08830        21.89800        11.64906
     1999.09103        30.35747        12.09132
     1999.09377        32.81395        12.22351
     1999.09651        17.61242        11.58051
     1999.09925        18.97289        12.24636
     1999.10198         9.82437        13.09662
     1999.10472        -4.87316        15.41893
     1999.10746        40.42132        13.20760
     1999.11020        12.07479        12.44383
     1999.11294        15.81327        12.01952
     1999.11567        -0.06326        11.85958
     1999.11841         4.38422        11.86121
     1999.12115         0.23769        11.90201
     1999.12389         9.63817        12.09785
     1999.12663         8.83764        12.20883
     1999.12936        16.02112        13.09825
     1999.13210        16.99059        12.09296
     1999.13484        35.41407        12.86325
     1999.13758        18.11754        11.78614
     1999.14031        27.51302        13.42139
     1999.14305        11.61549        12.01462
     1999.14579        22.65897        11.78941
     1999.14853         9.54744        11.65559
     1999.15127        10.38792        11.78778
     1999.15400        14.28039        11.54624
     1999.15674         7.36987        12.14028
     1999.15948        26.75034        11.86774
     1999.16222         7.89882        12.16639
     1999.16496         9.27729        12.39977
     1999.16769         4.46577        11.91344
     1999.17043         6.27324        11.88733
     1999.17317         5.17372        11.58215
     1999.17591         3.70219        11.97056
     1999.17864         7.46267        11.49728
     1999.18138        10.33314        11.46138
     1999.18412         7.49662        11.79594
     1999.18686        -1.61991        11.54135
     1999.18960         7.97157        12.24799
     1999.19233         0.41204        11.55930
     1999.19507        12.09552        11.70128
     1999.19781        11.70499        11.74698
     1999.20055        10.53747        11.47280
     1999.20329        11.80194        11.62784
     1999.20576         5.61028        12.23331
     1999.20876        25.72089        11.60663
     1999.21150         8.16337        11.57235
     1999.21424         4.65484        11.41405
     1999.21697         8.00232        11.48912
     1999.21971         6.79579        11.47117
     1999.22245        -2.01473        11.78614
     1999.22519         9.76974        11.22311
     1999.22793        12.77622        11.86448
     1999.23066         8.09969        11.32266
     1999.23340        -4.50583        11.15457
     1999.23614         1.25664        11.35530
     1999.23888        -6.45988        11.20026
     1999.24162         0.12159        11.64579
     1999.24435        15.40307        11.80246
     1999.24709        11.69154        11.57888
     1999.24983         2.84102        11.38305
     1999.25257         8.24149        11.36020
     1999.25530        14.28297        11.34877
     1999.25804        -1.63956        11.12193
     1999.26078        10.42492        13.89466
     1999.26352        -8.11561        15.83671
     1999.26626       -22.76713        13.70209
     1999.26899       -18.00966        13.09662
     1999.27173        -2.67918        11.07460
     1999.27447        11.62229        11.40100
     1999.27721        11.50377        11.35857
     1999.27995        14.40124        11.22638
     1999.28268         2.94772        10.94568
     1999.28542         4.46019        11.28676
     1999.28816         8.25767        11.65885
     1999.29090         8.10614        12.00156
     1999.29363        -0.25138        11.04359
     1999.29637         6.20909        11.31613
     1999.29911        12.06357        11.77472
     1999.30185        -0.46796        11.62295
     1999.30459         4.86552        12.81755
     1999.30732        16.41799        12.68373
     1999.31006        30.51447        13.39364
     1999.31280        22.21194        12.42262
     1999.31554         8.95642        11.24106
     1999.31828         8.43389        11.86448
     1999.32101         6.75737        11.33245
     1999.32375        24.03184        12.44873
     1999.32649        38.58232        14.73023
     1999.32923        10.64179        11.38794
     1999.33196         5.96227        11.52829
     1999.33470        11.71074        12.05542
     1999.33744         9.37222        11.71760
     1999.34018        12.80569        11.36836
     1999.34292        25.97017        11.67191
     1999.34565         9.59564        11.38957
     1999.34839        13.24712        10.97179
     1999.35113         7.92459        11.34714
     1999.35387        17.06407        11.36183
     1999.35661         9.73154        11.81062
     1999.35934        17.60502        12.02115
     1999.36208        13.34549        11.61152
     1999.36482        12.28197        11.43853
     1999.36756        10.82244        11.35693
     1999.37029        -1.16008        11.12519
     1999.37303         8.01539        11.58215
     1999.37577        -2.18313        11.53645
     1999.37851         7.36534        11.41732
     1999.38125       -13.16118        11.58867
     1999.38398        12.54429        11.31450
     1999.38672        19.76777        11.25249
     1999.38946        23.91424        11.65232
     1999.39220        12.35572        11.77798
     1999.39493        15.30619        11.32103
     1999.39767        23.06967        11.87427
     1999.40041        10.26514        11.55930
     1999.40315        22.28062        11.64090
     1999.40589         4.07109        11.52013
     1999.40862         7.38157        11.60499
     1999.41136        10.41204        11.43853
     1999.41410        23.39752        11.48749
     1999.41684        20.88899        11.21822
     1999.41958        22.51147        11.59031
     1999.42286        40.57024        16.32141
     1999.42505        34.65542        11.49728
     1999.42779        31.97189        11.82858
     1999.43053        21.67837        12.01952
     1999.43326        24.09984        12.12233
     1999.43600        19.51632        11.34551
     1999.43874        14.95579        11.57235
     1999.44148        10.33327        11.85632
     1999.44422        15.57174        11.31124
     1999.44695        16.11022        11.55930
     1999.44969        11.08169        12.31327
     1999.45243         2.33217        11.88243
     1999.45517        15.88164        11.58215
     1999.45791         9.98112        11.95424
     1999.46064        16.48559        11.74534
     1999.46338        12.77107        11.93302
     1999.46612        15.91654        11.65069
     1999.46886         8.88501        11.44669
     1999.47159        17.46649        11.80410
     1999.47433        15.93096        11.73229
     1999.47707         1.18844        11.68659
     1999.47981        31.20091        12.25779
     1999.48255        21.24239        12.05705
     1999.48528        24.84486        12.33449
     1999.48802        16.81034        11.87427
     1999.49076        16.50381        12.82408
     1999.49350        15.83329        11.43690
     1999.49624        21.51676        12.96117
     1999.49897        13.79824        12.16639
     1999.50171        27.03471        12.49116
     1999.50445         6.58519        11.98851
     1999.50719        13.86766        11.72902
     1999.50992         9.18614        11.47770
     1999.51266         8.21061        12.77675
     1999.51540        25.11609        11.94281
     1999.51814        20.18356        11.99504
     1999.52088        13.32304        11.47607
     1999.52361        11.14251        11.58051
     1999.52639        15.16801        12.05868
     1999.52909        13.61546        11.65069
     1999.53215        31.56611        12.76696
     1999.53457        35.81641        12.24310
     1999.53730         8.38589        11.83184
     1999.54004        21.72836        11.38957
     1999.54278        10.41784        11.54624
     1999.54552        11.34431        11.88243
     1999.54825         7.28379        11.53156
     1999.55099        12.30326        11.04196
     1999.55373         5.88174        11.32756
     1999.55647        18.10421        11.55277
     1999.55921         9.54669        11.68986
     1999.56194        17.90016        11.42384
     1999.56468        17.41464        11.54624
     1999.56742        17.43111        11.28349
     1999.57016        21.04859        11.24759
     1999.57290        15.56506        11.27697
     1999.57563        24.99454        11.69312
     1999.57837        22.86501        11.25412
     1999.58111        14.18449        11.05828
     1999.58385         7.83996        11.21332
     1999.58658         8.25044        11.48096
     1999.58932        20.95491        11.86121
     1999.59206        14.96439        11.47444
     1999.59480        15.08086        11.61152
     1999.59754        19.21934        11.96566
     1999.60027         8.89081        10.90651
     1999.60301        22.11029        11.76982
     1999.60849        35.28324        11.91181
     1999.61123        12.65671        11.40916
     1999.61324        23.42480        17.30060
     1999.61670        20.64166        11.15946
     1999.61944        25.27914        11.76819
     1999.62218        12.69061        11.06318
     1999.62491         9.62509        11.90038
     1999.63048         7.09909        11.69639
     1999.63313        -1.55249        11.78125
     1999.63587         6.28999        12.29858
     1999.63860         6.79146        11.47117
     1999.64134         2.06194        12.00646
     1999.64408       -19.91459        12.23494
     1999.64682         5.98489        11.59194
     1999.64956        20.18536        12.28227
     1999.65229        30.81084        12.11744
     1999.65503        14.95631        12.21372
     1999.65777        17.63179        12.07990
     1999.66051         4.54826        12.45362
     1999.66324        12.17074        12.06358
     1999.66598        32.59521        12.39977
     1999.66872         7.74369        11.66864
     1999.67146         2.67116        11.36999
     1999.67420         4.90064        12.17945
     1999.67693        -1.61989        11.56419
     1999.67967         7.14759        11.46628
     1999.68241         6.70606        12.28063
     1999.68515        -5.92346        12.83387
     1999.68789        -9.58899        11.92649
     1999.69062       -20.33951        11.79594
     1999.69336        16.26796        11.86611
     1999.69610         3.72144        11.90691
     1999.69884         1.62991        12.06684
     1999.70157         4.70639        11.95587
     1999.70431         3.60486        11.27044
     1999.70705         5.73334        11.56746
     1999.70979        19.38781        12.18924
     1999.71253         9.12029        12.15660
     1999.71526        16.77276        12.40956
     1999.71800        18.59024        11.79920
     1999.72074        11.50371        12.27900
     1999.72348        12.77619        12.26105
     1999.72621        19.75766        12.21862
     1999.72895        19.86914        12.47321
     1999.73169        22.87161        11.91017
     1999.73443         1.60709        12.24799
     1999.73717         5.16856        11.61315
     1999.73990         6.74904        12.16639
     1999.74264         1.60851        11.93302
     1999.74538        11.58399        12.23331
     1999.74812         5.18946        12.77512
     1999.75086         9.49794        12.86162
     1999.75359         2.29841        12.18761
     1999.75633         3.31389        12.28390
     1999.75907        19.40436        12.60376
     1999.76181        38.84484        12.23331
     1999.76454         6.76531        12.11091
     1999.76728         8.00779        12.11580
     1999.77002        18.91426        11.89712
     1999.77276        13.08874        11.99177
     1999.77550         2.33421        11.64090
     1999.77823        10.20669        12.03420
     1999.78097         0.17716        11.66375
     1999.78371         9.21764        11.52992
     1999.78645        11.75511        12.14518
     1999.78919        10.61459        11.63763
     1999.79192         9.15906        11.80736
     1999.79466        14.16154        12.34754
     1999.79740         1.89901        12.52706
     1999.80014         2.51749        11.90691
     1999.80287         2.44496        11.86774
     1999.80561         6.77744        11.62784
     1999.80728       -23.87967        29.98270
     1999.81109         3.75139        11.84000
     1999.81383         0.62386        11.78778
     1999.81656        12.21034        11.63274
     1999.81930        14.23181        12.16966
     1999.82204       -13.48471        13.09009
     1999.82478        -0.89524        12.55644
     1999.82752         1.16524        11.79104
     1999.83025        -4.81929        11.92323
     1999.83299         0.98619        11.81389
     1999.83573         0.30466        11.73882
     1999.83847         1.39214        11.73555
     1999.84120        12.02361        12.12233
     1999.84394         6.06608        11.80083
     1999.84668         3.42956        11.71923
     1999.84942         1.05303        11.88733
     1999.85216       -23.27249        15.49400
     1999.85489        16.61198        11.78614
     1999.85763        15.10946        11.67354
     1999.86037        18.80593        11.42221
     1999.86311        -3.58859        11.93792
     1999.86585        12.26088        11.48260
     1999.86858         9.88736        11.49402
     1999.87132         9.59983        12.08643
     1999.87406        31.32031        11.93139
     1999.87680        36.10378        12.23331
     1999.87953        10.37226        11.60499
     1999.88227        11.04073        11.80736
     1999.88501        -0.26879        13.02808
     1999.88775        17.86168        12.22025
     1999.89049        13.40916        11.52176
     1999.89322        32.55763        11.96077
     1999.89596        15.28211        12.33286
     1999.89870        20.92458        12.13049
     1999.90144        14.35106        12.39814
     1999.90418        32.21353        11.50218
     1999.90691        31.90701        11.30145
     1999.90965        -0.80252        11.45159
     1999.91239        11.26296        12.33122
     1999.91513        37.21843        12.49442
     1999.91756        11.21075        13.55031
     1999.92060        29.68838        11.75350
     1999.92334        24.52886        12.60540
     1999.92608        31.80933        12.12396
     1999.92882        15.72581        11.61968
     1999.93155        19.65028        11.68659
     1999.93429         9.40676        12.48300
     1999.93798        48.42474        21.85708
     1999.93977        11.67771        11.96566
     1999.94251        33.49918        11.73718
     1999.94524        28.09766        11.84816
     1999.94887        62.98461        20.12555
     1999.95072        24.94961        12.55481
     1999.95346        28.93008        11.98198
     1999.95619        28.19756        12.05705
     1999.95893        40.59203        12.75064
     1999.96167        27.79151        12.79144
     1999.96441        23.89298        12.30185
     1999.96604       -10.06514        31.73381
     1999.96988        28.25993        13.29572
     1999.97262        25.13641        12.77349
     1999.97536        26.00788        12.23983
     1999.97810        21.67136        11.87917
     1999.98084        20.81883        11.55114
     1999.98357        21.77831        11.79757
     1999.98905        12.37526        12.14355
     1999.99179        14.93573        11.75514
     1999.99452        16.34821        11.28186
     1999.99726        20.64368        11.72902
     2000.00274        23.93263        11.60336
     2000.00548        16.47011        11.39447
     2000.00821        -0.76242        11.59683
     2000.01095        24.41706        11.29492
     2000.01369         6.99053        11.09092
     2000.01623         1.67390        12.70495
     2000.01916        11.96948        10.98647
     2000.02190        11.62596        11.35857
     2000.02464        33.96443        11.48423
     2000.02738         4.35791        12.26105
     2000.03012        34.47338        13.49972
     2000.03285         6.43386        11.45485
     2000.03559        21.70033        11.87753
     2000.03833        10.23881        11.55114
     2000.04107        27.12428        12.93179
     2000.04381        10.49376        12.96770
     2000.04654        16.88823        15.32101
     2000.04928        40.65571        11.82205
     2000.05202        24.00818        12.04889
     2000.05476        51.10166        12.20230
     2000.05749        41.12913        12.56297
     2000.06023        37.78861        12.77023
     2000.06297        39.79708        13.51278
     2000.06571        61.68356        15.67188
     2000.06845        15.32803        13.30388
     2000.07118        31.52651        12.37855
     2000.07392        16.19498        11.71270
     2000.07666        21.32146        11.89549
     2000.07940        41.42193        12.95464
     2000.08214        40.13141        13.75920
     2000.08487        37.06588        12.33286
     2000.08761        24.33036        12.09296
     2000.09035        26.85483        12.43078
     2000.09582        34.73378        12.40140
     2000.09856        34.59126        11.49239
     2000.10130        27.86473        12.44709
     2000.10404        21.67121        11.38305
     2000.10678        32.61768        11.37489
     2000.10951        28.54216        12.89915
     2000.11225        38.45063        11.91507
     2000.11499         3.43511        12.16150
     2000.11773        24.37058        12.00483
     2000.12029        16.14196        13.32020
     2000.12320         9.29853        11.57072
     2000.12594        11.49001        11.53319
     2000.12868        13.23448        10.82980
     2000.13097        10.52271        12.73432
     2000.13415        11.70043        11.24433
     2000.13689        11.01091        11.73555
     2000.13963        28.67638        12.21046
     2000.14237        10.34186        11.76982
     2000.14511         7.53433        11.58215
     2000.14784        13.33581        11.36509
     2000.15058        22.01028        11.55277
     2000.15332        22.98276        11.66375
     2000.15606         8.78323        11.30961
     2000.15880       -17.76229        13.34305
     2000.16153       -21.88382        12.42588
     2000.16427        -2.74534        12.29206
     2000.16701         9.23813        11.39773
     2000.16975        -2.45239        12.33449
     2000.17522        46.27856        12.36713
     2000.17796        20.18503        11.89549
     2000.18070        24.19851        11.41079
     2000.18344        12.72298        11.99667
     2000.18617        31.92846        12.43730
     2000.18891        11.66293        11.64416
     2000.19165        18.91941        12.12396
     2000.19439         3.98688        11.68496
     2000.19713        13.61036        11.68496
     2000.19986        24.30083        11.73392
     2000.20260        17.54231        12.17619
     2000.20534         5.27478        12.66088
     2000.20808        13.52726        12.27574
     2000.21042         5.61852        13.63517
     2000.21355        12.81221        11.63111
     2000.21629        17.52068        12.00809
     2000.21903        21.14015        11.68496
     2000.22177         9.44163        12.15171
     2000.22450         6.11510        12.37366
     2000.22724        10.42158        12.03584
     2000.22998         7.69305        11.73718
     2000.23272        11.47953        12.32470
     2000.23546        14.84700        13.08357
     2000.23819        13.80348        11.81389
     2000.24367         6.40243        11.91181
     2000.24641        -4.11810        12.28879
     2000.24914        -2.48162        12.21209
     2000.25188         6.16285        12.56297
     2000.25462         1.64433        11.90691
     2000.25736        -4.52720        11.87264
     2000.26010        -0.64372        11.62621
     2000.26283         4.00875        12.54991
     2000.26557         5.01023        12.21209
     2000.26831         0.60370        12.21535
     2000.27105        -0.94282        11.98688
     2000.27379        -1.35935        11.60173
     2000.27652        -5.99087        11.48096
     2000.27926         2.05060        12.58744
     2000.28200        13.40408        12.81103
     2000.28474        18.69355        13.35284
     2000.28747         2.99603        11.34061
     2000.29021        16.09050        11.90691
     2000.29295        10.93298        14.64047
     2000.29569       -17.60755        13.68413
     2000.29843        14.32593        11.95097
     2000.30116        12.52340        12.47157
     2000.30390        13.23088        12.18598
     2000.30606        13.17004        15.21167
     2000.30938         9.57683        12.17455
     2000.31211         3.61030        12.40793
     2000.31485         0.64978        11.75677
     2000.31759         5.36425        12.31164
     2000.32033        -9.16627        11.91507
     2000.32307       -14.84080        11.78778
     2000.32580        -4.73432        11.79594
     2000.32854        -9.69585        11.68659
     2000.33128        -2.10537        11.84979
     2000.33402        -2.65090        11.86285
     2000.33676        -5.19042        12.17619
     2000.33949         7.09005        11.85469
     2000.34223       -12.89247        12.20556
     2000.34497         6.69300        12.11907
     2000.34771        12.58448        12.93342
     2000.35044        19.43395        11.95587
     2000.35318       -11.77957        12.35244
     2000.35592        -8.36410        12.22025
     2000.35866        -6.35962        11.79267
     2000.36140         5.81585        12.02604
     2000.36413       -11.17767        11.92160
     2000.36687       -14.13220        11.77309
     2000.36961       -11.64172        11.89875
     2000.37235         5.32175        14.68290
     2000.37509         4.62323        12.57929
     2000.37782         4.79270        12.32143
     2000.38056         7.32018        11.84000
     2000.38330         7.99465        11.78288
     2000.38604         5.19013        11.99667
     2000.38877        10.12760        11.48749
     2000.39151         4.31208        12.16150
     2000.39425        14.23755        12.39324
     2000.39699        19.12803        12.49442
     2000.39973        12.06550        11.75840
     2000.40246        10.50898        12.24636
     2000.40520         7.59645        12.06521
     2000.40794         1.77093        11.89385
     2000.41068        -6.25760        11.81389
     2000.41342        -5.14312        11.70128
     2000.41615        -0.90465        11.93139
     2000.41889        11.84383        11.44016
     2000.42163         7.90830        11.49892
     2000.42437        10.51478        11.82368
     2000.42710        25.99125        12.37202
     2000.42984         7.12273        11.71923
     2000.43258         9.25120        11.47444
     2000.43532        14.16868        11.55277
     2000.43806        32.31915        12.20230
     2000.44079        13.99563        11.68986
     2000.44353        14.61010        11.75024
     2000.44901         8.87205        11.71107
     2000.45175        16.28353        12.02768
     2000.45448        10.93700        11.83837
     2000.45637        22.48802        18.84445
     2000.45996        19.51095        11.56746
     2000.46270        30.69343        11.90038
     2000.46543        11.74190        11.81715
     2000.46817         9.16538        11.22311
     2000.47091        38.85185        12.23004
     2000.47365        19.29133        11.92160
     2000.47639        21.59380        12.06684
     2000.48186        39.96375        12.13702
     2000.48460        21.15123        12.19251
     2000.48734        18.76770        12.25289
     2000.49008        21.16818        12.31327
     2000.49281        21.04265        11.85632
     2000.49555        15.52213        11.89222
     2000.49829        38.89760        12.17455
     2000.50103        18.85008        11.29981
     2000.50376        25.18655        12.17945
     2000.50650        19.64503        11.60336
     2000.50924        13.35750        11.62458
     2000.51198        18.62198        12.42914
     2000.51472        13.00345        11.73718
     2000.51745        12.81593        11.55767
     2000.52019        18.43940        11.83510
     2000.52293        17.25188        11.52992
     2000.52567        18.60035        11.38468
     2000.52841        11.28983        11.69639
     2000.53114        10.95830        11.59031
     2000.53388        15.52178        11.80899
     2000.53662         4.36525        11.70454
     2000.53936         5.66273        11.39937
     2000.54209         9.43320        11.55114
     2000.54483         8.60268        11.91833
     2000.54757        -1.23085        12.13049
     2000.55031         5.91863        11.32266
     2000.55305         5.60510        11.06481
     2000.55578        12.23458        11.48096
     2000.55852        -4.06995        11.55114
     2000.56126         6.71653        11.57725
     2000.56400         4.59900        11.61642
     2000.56674        10.28548        11.76982
     2000.56947        12.61695        12.07337
     2000.57221        -2.35057        12.33938
     2000.57495        -4.82410        12.17619
     2000.57769         1.94238        11.62621
     2000.58042         3.22385        11.65559
     2000.58316         7.51133        13.06235
     2000.58590        -3.33220        12.66088
     2000.59138        -0.54625        12.99381
     2000.59411         5.76822        12.80450
     2000.59685         2.53370        12.64456
     2000.59959         3.49117        12.34591
     2000.60233         5.46465        12.11580
     2000.60507        -3.19288        12.61845
     2000.60780       -13.43340        12.93342
     2000.61054         3.21707        11.60826
     2000.61328        -7.40245        12.41446
     2000.61602        -4.27198        12.32959
     2000.61875        -7.35750        12.48300
     2000.62149        -2.80603        12.12233
     2000.62423        17.03545        11.90201
     2000.62697        17.52392        12.97096
     2000.62971        -8.96260        12.74248
     2000.63244        12.56287        12.17945
     2000.63518         3.61335        12.46015
     2000.63792         2.76182        11.77635
     2000.64066        12.62830        12.23331
     2000.64339        14.02377        11.94934
     2000.64613        -2.91175        13.32836
     2000.64887         4.23672        12.54338
     2000.65161        50.45020        13.46545
     2000.65435        31.61667        12.92690
     2000.65708        13.28115        12.68863
     2000.65982        23.24062        13.09989
     2000.66256        32.09410        13.00197
     2000.66530        43.93857        12.70821
     2000.66804        36.53005        12.57929
     2000.67077        56.12052        13.07051
     2000.67351        29.58200        12.23657
     2000.67625        20.48347        12.98238
     2000.67899         4.10095        11.57888
     2000.68172        22.92342        11.85469
     2000.68446        19.34990        12.56786
     2000.68720        15.08537        12.22678
     2000.68994        27.16785        13.38385
     2000.69268        10.59232        12.35081
     2000.69541        12.47780        11.72902
     2000.69815        13.07627        11.84816
     2000.70089        10.29875        12.09785
     2000.70363         6.51222        12.29532
     2000.70637        13.70970        12.07174
     2000.70910         2.33217        12.03257
     2000.71184         5.71665        12.38345
     2000.71458        -2.84188        11.57562
     2000.71732         1.53060        11.47444
     2000.72005         0.88007        11.66701
     2000.72279         5.48255        11.83347
     2000.72553         2.12602        12.03420
     2000.72827         7.88550        11.65395
     2000.73101         1.97397        11.64253
     2000.73374         7.13345        12.42425
     2000.73648         5.71592        11.91344
     2000.73922       -10.04060        12.33612
     2000.74196         6.52487        12.58255
     2000.74470         5.70835        12.77839
     2000.74743         9.40482        12.57765
     2000.75017        10.74030        12.93179
     2000.75291        15.62877        13.37079
     2000.75565        13.24725        12.35081
     2000.75838         4.60072        12.10928
     2000.76112        14.37720        12.47973
     2000.76386         5.16967        11.76656
     2000.76660        16.34015        12.15987
     2000.76934         4.00262        11.74208
     2000.77207        12.57710        12.13702
     2000.77481        14.52257        11.74371
     2000.77755        14.84105        12.08643
     2000.78029        14.50052        12.50911
     2000.78303        10.36100        12.08806
     2000.78576         9.73147        11.62131
     2000.78850        17.07995        11.78614
     2000.79124        11.09642        11.76819
     2000.79398        15.84290        11.84653
     2000.79671         2.80737        11.74698
     2000.79945         9.86785        11.83347
     2000.80219         9.87732        11.73392
     2000.80493        21.97580        12.04889
     2000.80767        14.41027        11.88569
     2000.81040        14.14975        11.83347
     2000.81314         3.52322        11.46791
     2000.81588        10.63970        12.18761
     2000.81862        10.64017        12.36060
     2000.82136        19.84565        13.06072
     2000.82409         9.04612        11.46464
     2000.82683        11.43160        15.11375
     2000.82957        32.95207        12.99054
     2000.83231        39.16255        12.46505
     2000.83504        33.02102        12.33938
     2000.83778        26.64850        12.04400
     2000.84052        29.38397        11.85142
     2000.84326        23.08845        12.13865
     2000.84600        29.42192        11.70781
     2000.84838         8.63921        13.91098
     2000.85147        16.19587        11.88406
     2000.85421        23.17635        11.89385
     2000.85695        36.67982        11.92323
     2000.85969        29.41830        12.69189
     2000.86242        19.94977        11.59194
     2000.86516        41.47425        11.77146
     2000.86790        28.10172        11.77309
     2000.87064        34.80520        12.68700
     2000.87337        28.68367        11.67191
     2000.87611        30.60215        11.86285
     2000.87885        28.44862        11.67517
     2000.88159        22.68910        12.36223
     2000.88433        30.54657        12.28879
     2000.88706        35.01105        11.84489
     2000.88980        36.05252        12.08480
     2000.89254        32.89700        12.20719
     2000.89528        33.52247        12.07500
     2000.89802        33.89995        12.02278
     2000.90075        24.80542        11.52503
     2000.90349        27.61590        11.78941
     2000.90623        41.55937        12.94322
     2000.90897        29.50185        11.50055
     2000.91170         8.18132        11.89712
     2000.91444        42.79080        12.33612
     2000.91718        45.35527        12.49116
     2000.91992        39.56775        12.59887
     2000.92266        42.87022        12.58418
     2000.92539        19.76670        13.23371
     2000.92813        35.55617        12.68700
     2000.93087        32.40165        12.16150
     2000.93361        39.61612        12.81919
     2000.93634        35.44060        12.57113
     2000.93908        36.17707        11.67517
     2000.94182        35.49555        11.71597
     2000.94456        26.14802        12.05868
     2000.94730        26.55150        12.37855
     2000.95003        15.09497        12.08806
     2000.95277        15.61845        11.28839
     2000.95551        29.76692        11.55114
     2000.95825        20.58140        11.24759
     2000.96099        19.93687        12.23983
     2000.96372        11.36135        11.52829
     2000.96646        12.56682        11.96240
     2000.96920        10.99329        11.27044
     2000.97194         1.18277        11.71107
     2000.97467         2.20324        11.24106
     2000.97741        12.99872        10.92120
     2000.98015        18.67019        10.94241
     2000.98289        14.51867        11.01911
     2000.98563        10.27814        11.09255
     2000.98836        11.82962        11.50381
     2000.99110         5.25609        11.17089
     2000.99384        12.35757        10.80206
     2000.99658        16.14604        11.25738
     2000.99932        18.73852        10.91467
     2001.00479        10.73147        11.09582
     2001.00753        14.49594        11.36836
     2001.01027        20.41942        12.09622
     2001.01300        18.14289        11.52013
     2001.01574        16.25537        11.44832
     2001.01848        13.38584        11.25738
     2001.02122        21.92732        11.42874
     2001.02396        47.19779        11.68170
     2001.02669        36.14027        11.93955
     2001.03217        30.83922        11.00116
     2001.03491        37.27669        11.76166
     2001.03765        28.76817        11.17252
     2001.03987        15.56137        13.34305
     2001.04312        13.95212        11.15294
     2001.04586        13.10459        11.65722
     2001.04860         0.21807        11.13498
     2001.05133        38.70254        11.37325
     2001.05407        25.99302        11.29492
     2001.05681        33.62849        11.49076
     2001.05955        25.14797        11.08113
     2001.06229        15.19644        12.13865
     2001.06502        18.86892        11.79920
     2001.06776        -2.22861        11.84326
     2001.07050        -6.01713        12.05379
     2001.07324        -7.74066        12.89752
     2001.07598       -17.29718        13.23534
     2001.07871       -29.40271        12.17292
     2001.08145       -14.58223        11.46628
     2001.08419         0.26024        11.94445
     2001.08665        40.59957        13.59601
     2001.08966         8.12019        11.35367
     2001.09240         6.73167        11.09092
     2001.09514         7.10614        11.28023
     2001.09788         0.48062        11.47444
     2001.10062         4.07509        11.39121
     2001.10335         2.19357        10.97342
     2001.10609        -9.59996        11.52503
     2001.10883        -0.70248        11.40100
     2001.11157         0.16199        11.36999
     2001.11431         3.51947        11.53972
     2001.11704       -11.07906        12.07827
     2001.11978        -6.37058        11.68659
     2001.12252       -33.38811        12.56133
     2001.12526        -2.74963        12.24473
     2001.12799         7.14684        11.10071
     2001.13073         0.40432        10.82164
     2001.13347         6.33979        11.21169
     2001.13621         1.95027        11.35367
     2001.13895        -0.30026        11.71923
     2001.14168        25.77622        11.72739
     2001.14442         1.36569        10.87224
     2001.14716         6.86517        11.32756
     2001.14990         6.75464        11.96403
     2001.15264        -0.27288        11.96240
     2001.15537        20.22359        11.75350
     2001.15811         1.93507        11.50708
     2001.16085         9.34954        11.20026
     2001.16359         7.08902        11.83021
     2001.16632        16.61649        12.94974
     2001.16906        -1.46703        11.46464
     2001.17180         4.32444        11.86121
     2001.18275        39.74234        18.94889
     2001.18549        36.55482        18.90646
     2001.18823       -34.24371        16.50256
     2001.19097       -34.38023        13.52910
     2001.19370       -12.97276        13.10152
     2001.19644        15.68872        12.11417
     2001.19918         4.14319        11.53482
     2001.20192         7.72767        11.33898
     2001.20465        11.39914        11.40589
     2001.20739        -2.51738        11.27207
     2001.21013        -5.56391        11.40589
     2001.21287        -4.23743        11.29655
     2001.21561         9.97304        11.52176
     2001.21834        12.20852        11.54788
     2001.22382        10.63147        11.45975
     2001.22656        16.22894        11.69149
     2001.22930         6.44042        11.49239
     2001.23203         3.82589        11.46301
     2001.23477        10.78137        11.98688
     2001.23751        30.87784        12.52217
     2001.24025         1.20432        12.03420
     2001.24298        -0.89821        11.56093
     2001.24572        -3.42473        11.61968
     2001.24846         8.22874        12.33612
     2001.25120        12.44922        12.34591
     2001.25394         5.86969        11.51360
     2001.25667        15.69417        11.50708
     2001.25941        20.66364        13.18148
     2001.26215        10.08312        11.64906
     2001.26489         6.83659        12.22025
     2001.26762        24.19607        11.85958
     2001.27036         8.66454        11.40426
     2001.27310        23.76902        11.94445
     2001.27584         5.68049        11.76819
     2001.27858        10.50097        11.90365
     2001.28131         0.71744        11.50381
     2001.28405         4.03292        11.59194
     2001.28679        13.17839        11.80246
     2001.28953         9.52587        12.20556
     2001.29227        -5.99466        11.87917
     2001.29500       -18.33118        11.70781
     2001.29774         3.38929        11.65885
     2001.30048         6.78877        11.25901
     2001.30322         4.23524        12.97259
     2001.30595        -9.81128        12.79797
     2001.30869         8.97119        11.33735
     2001.31143        12.18067        11.54298
     2001.31417        11.99414        11.52829
     2001.31691        22.23462        11.78778
     2001.31964        16.11409        12.14844
     2001.32238         4.48557        11.55603
     2001.32512         4.96004        11.70618
     2001.32786        -3.28248        11.99340
     2001.33060         8.74099        11.42221
     2001.33333         4.16147        11.33245
     2001.33607         8.93194        11.41732
     2001.33881        -3.11658        11.21006
     2001.34155         3.16489        11.29655
     2001.34428         2.24536        11.53319
     2001.34702         8.43984        11.45812
     2001.34976        11.12431        11.50871
     2001.35250         5.60879        11.21169
     2001.35524        13.14226        11.21985
     2001.35797         8.65974        11.58051
     2001.36071        14.50921        11.49239
     2001.36345        27.91269        11.65722
     2001.36619        18.30716        11.45648
     2001.36893        15.71064        11.47444
     2001.37166        21.78911        11.76166
     2001.37440        14.96159        11.92486
     2001.37714        13.79806        11.85469
     2001.37988        13.18054        11.62947
     2001.38261        18.77101        11.72086
     2001.38535        13.68149        11.60989
     2001.38809        25.70396        12.15497
     2001.39083        20.49844        11.51850
     2001.39357        21.33791        11.60989
     2001.39630        21.07539        11.58051
     2001.39904        22.92286        11.84000
     2001.40178        22.59734        11.72739
     2001.40452        34.88181        11.69965
     2001.40726        17.32729        11.91017
     2001.40999        14.46476        11.33898
     2001.41273        19.06324        11.63600
     2001.41547        21.82371        11.57562
     2001.41821        11.93519        11.71270
     2001.42094        17.52066        11.67680
     2001.42368        24.09214        11.80410
     2001.42642        10.75861        11.39610
     2001.42916        25.64609        11.83674
     2001.43190        18.11756        11.35041
     2001.43463        15.78304        11.22638
     2001.43737        14.32751        11.12193
     2001.44011        15.35599        11.02891
     2001.44285        15.59846        11.26228
     2001.44559        11.47394        11.50708
     2001.44832        15.16741        11.43853
     2001.45106         5.01489        10.95710
     2001.45380        15.71936        11.19537
     2001.45654        20.04084        11.16436
     2001.45927        15.25431        11.98198
     2001.46201        24.89179        11.61642
     2001.46475        10.22026        11.38794
     2001.46749         9.86674        11.16762
     2001.47023         8.56921        11.68986
     2001.47296         7.91169        11.02564
     2001.47570         6.52516        11.35693
     2001.47809        50.78845        13.63028
     2001.48939         8.70054        10.75963
     2001.49213         8.94801        11.03707
     2001.49487        21.52149        10.87060
     2001.49760        21.15896        10.78901
     2001.50034        16.30344        10.94078
     2001.50308        18.30191        10.94731
     2001.50582        14.96839        10.96199
     2001.50856        17.83286        11.00116
     2001.51129        29.16334        11.20679
     2001.51403        22.99581        10.85428
     2001.51677        21.36129        10.88203
     2001.51951        10.01476        10.82654
     2001.52225        22.24924        11.47607
     2001.52498        15.58071        11.28349
     2001.52772         4.87819        11.54788
     2001.53046         8.66066        11.29329
     2001.53320         7.40214        10.89672
     2001.53593        18.68861        10.73189
     2001.53867         9.35109        10.78248
     2001.54141        16.15456        10.76453
     2001.54415         3.32304        11.32919
     2001.54689         6.82851        11.13498
     2001.54962        15.63599        11.36183
     2001.55236        12.68846        10.96852
     2001.55510        10.24394        11.07297
     2001.55784         8.08241        11.24106
     2001.56057        15.13289        10.68129
     2001.56331        23.06036        10.65845
     2001.56605        19.33584        11.53156
     2001.56879         4.32831        11.60336
     2001.57153         0.54179        10.99137
     2001.57426         2.44626        11.51360
     2001.57700        23.44974        12.31001
     2001.57974         0.70021        11.21985
     2001.58248         7.93869        11.18558
     2001.58522        10.64216        11.17252
     2001.58795        13.21064        11.44996
     2001.59069         9.85911        11.36020
     2001.59343         5.09959        11.24759
     2001.59617         9.54506        11.21985
     2001.59890         5.42654        11.21495
     2001.60136        16.65486        12.91221
     2001.60438        26.67049        11.99504
     2001.60712        10.93996        11.28186
     2001.60986        15.21944        11.40589
     2001.61259         8.95891        11.13172
     2001.61533        11.85739        11.34061
     2001.61807        25.07286        11.32429
     2001.62081        13.60934        11.14804
     2001.62355        17.97481        11.36020
     2001.62628         8.95929        11.23780
     2001.62902        18.45676        11.97709
     2001.63176        28.76024        11.23617
     2001.63450        27.69771        11.68823
     2001.63723        20.22919        12.22841
     2001.63997        19.81266        11.13172
     2001.64271         8.80614        10.88529
     2001.64545        15.26161        11.01095
     2001.64819        21.45409        11.38957
     2001.65092        -0.68244        11.30797
     2001.65366        12.66604        11.03380
     2001.65640        24.35351        11.71434
     2001.65914        17.60299        11.28186
     2001.66188        13.19346        11.01748
     2001.66461        22.71294        12.10601
     2001.66735        15.00441        11.29818
     2001.67009        14.43689        11.58378
     2001.67283        12.56336        11.47770
     2001.67556        14.74284        11.45812
     2001.67830        40.67031        12.43404
     2001.68104        19.78279        11.22311
     2001.68378        13.07526        11.10235
     2001.68652        16.41674        11.13988
     2001.68925        19.83721        11.06971
     2001.69199        11.69669        10.93752
     2001.69473        25.46616        11.45159
     2001.69747        19.68764        11.62131
     2001.70021        23.10211        11.28186
     2001.70294        21.63259        10.95220
     2001.70568        19.23706        11.02891
     2001.70842        20.87654        11.09745
     2001.71116        23.80101        11.30308
     2001.71389        28.17549        11.12846
     2001.71663        20.32696        11.03054
     2001.71937        23.87843        12.11091
     2001.72211        15.50991        11.14314
     2001.72485        18.90238        10.79880
     2001.72758        15.96386        10.90651
     2001.73009         6.67921        11.88406
     2001.73306        23.66481        12.06032
     2001.73580        23.19828        10.89508
     2001.73854        30.89476        11.24433
     2001.74127        22.59823        10.97505
     2001.74401        30.27771        11.12682
     2001.74675        16.84618        10.70741
     2001.74949        23.28366        10.92120
     2001.75222        23.55013        10.67640
     2001.75496        17.91361        11.26065
     2001.75770        18.97408        11.34714
     2001.76044        18.14456        11.32429
     2001.76318        28.98903        11.04523
     2001.76591        26.20251        11.62458
     2001.76865        30.96798        11.06644
     2001.77139        17.72046        10.98158
     2001.77413        12.88593        10.80043
     2001.77687        21.67441        10.91793
     2001.78234        25.18036        11.16762
     2001.78508        24.55883        11.18558
     2001.78782        26.35631        10.77921
     2001.79055        26.88078        11.10235
     2001.79329        28.94426        11.35367
     2001.79603        30.05973        11.00932
     2001.79877        25.40221        11.35530
     2001.80151        35.70468        10.77432
     2001.80424        25.27416        10.86897
     2001.80698        20.71563        11.18558
     2001.80972        23.57711        11.05012
     2001.81246        30.70558        10.96852
     2001.81520        23.70406        11.40100
     2001.81793        25.60253        10.99300
     2001.82067        36.56001        11.53319
     2001.82341        38.22348        11.59194
     2001.82615        27.35696        11.07623
     2001.82888        16.23143        11.45648
     2001.83162        37.06891        11.12846
     2001.83436        45.74738        11.25412
     2001.83710        45.57486        11.22801
     2001.83984        43.38233        11.25086
     2001.84257        31.46781        11.03217
     2001.84531        37.29728        11.22638
     2001.84805        72.90376        12.86815
     2001.85079        28.59423        11.16599
     2001.85352        18.70671        11.74208
     2001.85626        24.88218        11.32429
     2001.85900        30.93166        11.19047
     2001.86174        16.69613        11.19374
     2001.86448        23.74061        11.29165
     2001.86721        45.84008        11.90528
     2001.86995        29.09156        11.35204
     2001.87269        24.82703        11.03054
     2001.87543        29.37851        11.73718
     2001.87817        32.00698        11.26717
     2001.88090        28.56246        11.21822
     2001.88364        22.05593        11.49402
     2001.88638        33.50341        12.13702
     2001.88912        32.66388        12.25779
     2001.89185        27.64536        12.05379
     2001.89459        29.86383        11.84979
     2001.89733        44.60731        12.66415
     2001.90007        35.95378        12.50095
     2001.90281        47.46126        11.24433
     2001.90554        51.55273        11.77146
     2001.90828        19.34321        11.19700
     2001.91102        26.66768        10.98158
     2001.91376        28.48616        11.15620
     2001.91650        21.30263        11.04196
     2001.91923        30.35811        13.00034
     2001.92197        28.90458        11.25738
     2001.92471        10.59106        11.70128
     2001.92745        38.84153        11.00116
     2001.93018        28.82701        11.36020
     2001.93292        17.48948        11.07623
     2001.93566        14.44396        10.81022
     2001.93840        19.31443        10.90161
     2001.94114        21.17091        11.43364
     2001.94387        28.57238        11.38631
     2001.94661        26.07386        11.29981
     2001.94935        34.49633        10.97342
     2001.95209        24.29481        11.54951
     2001.95483        24.29528        10.84612
     2001.95756        16.27576        10.93099
     2001.96030        21.60423        11.39610
     2001.96304         7.35171        10.89019
     2001.96578         1.05118        10.67150
     2001.96851        -1.03134        10.74821
     2001.97125        -3.80387        11.05991
     2001.97399        -0.59539        11.06971
     2001.97673        11.85708        11.26065
     2001.97947         7.63656        11.38631
     2001.98220         7.89303        11.15783
     2001.98494        16.87851        10.71883
     2001.98768        23.08298        10.87060
     2001.99042        18.18346        10.95220
     2001.99316        16.51493        11.62295
     2001.99589        38.55741        11.36346
     2001.99863        36.51788        12.74248
     2002.00411        43.73083        11.69639
     2002.00684        30.77431        12.48137
     2002.00958        17.80078        11.36183
     2002.01232        15.59526        11.02238
     2002.01506         8.88073        11.45812
     2002.01780        14.57621        11.13498
     2002.02053         5.33568        11.57725
     2002.02327        14.27616        11.14478
     2002.02601        13.20163        11.74208
     2002.02875        20.20211        11.21169
     2002.03149        14.95758        11.65232
     2002.03422        15.11206        11.37652
     2002.03696        10.63653        11.67191
     2002.03970        15.67901        11.32593
     2002.04244         7.36048        11.41568
     2002.04517        15.07996        11.14478
     2002.04791        12.89343        10.85592
     2002.05065        22.84491        11.31287
     2002.05339        20.58838        10.94404
     2002.05613        10.32986        10.96689
     2002.05886        16.99133        10.90977
     2002.06160         9.45381        10.81349
     2002.06434         0.65828        11.08276
     2002.06708        13.81376        11.08766
     2002.06982         0.81523        11.03217
     2002.07255         5.22771        10.84939
     2002.07529        16.02718        11.41242
     2002.07803         9.24466        10.95873
     2002.08077         4.51413        11.45975
     2002.08350         3.32461        10.96199
     2002.08624        15.83508        12.03420
     2002.08898        15.41856        10.93099
     2002.09172        -8.92997        10.99463
     2002.09446        -1.65350        11.33082
     2002.09719        -5.67302        11.21006
     2002.09993        12.95445        10.99300
     2002.10267        15.40793        11.44506
     2002.10541        -1.93460        11.53645
     2002.10815         5.09388        11.17905
     2002.11088         2.76235        11.57235
     2002.11362        -0.12617        11.32593
     2002.11636         8.30430        11.26391
     2002.11910        19.52978        11.30961
     2002.12183        24.97225        11.95587
     2002.12457        22.58873        11.44506
     2002.12731        20.15720        11.51524
     2002.13005         4.76868        11.86121
     2002.13279        21.84315        11.56093
     2002.13552        26.17863        12.02278
     2002.13826        13.91810        11.68170
     2002.14100        19.10758        11.87753
     2002.14374        12.74705        12.11091
     2002.14648         2.43553        12.28553
     2002.14921        16.06300        11.96729
     2002.15195        12.81848        11.68496
     2002.15469        16.32695        11.67191
     2002.15743        21.12243        12.01299
     2002.16016        17.49490        12.01136
     2002.16290        16.32238        11.79920
     2002.16564         6.44285        11.56746
     2002.16875        13.34553        14.87221
     2002.17112         5.52280        11.40426
     2002.17385        19.22528        11.51034
     2002.17659         8.01575        12.21699
     2002.17933       -18.78877        12.28390
     2002.18207        11.72070        12.35897
     2002.18480        -2.85082        11.35693
     2002.18754        -3.45535        11.23454
     2002.19028        22.95713        11.75187
     2002.19302        14.17760        11.61642
     2002.19576        22.50108        11.56746
     2002.19849        14.50455        11.43364
     2002.20123        16.12703        12.06684
     2002.20397         6.30750        11.19700
     2002.20671         6.96098        11.63274
     2002.20945         7.56845        12.27084
     2002.21218         5.55993        11.30634
     2002.21492         5.64840        11.71270
     2002.21766         6.75888        11.50871
     2002.22040         9.27835        11.42548
     2002.22313         4.08083        11.98198
     2002.22587         2.37930        11.53645
     2002.22861        15.90478        11.51524
     2002.23135         6.86025        11.38305
     2002.23409        10.46173        11.76166
     2002.23682        14.06720        11.70944
     2002.23956         4.93468        11.45648
     2002.24230        -1.46885        11.63437
     2002.24504         8.35263        11.79104
     2002.24778         2.79510        11.42711
     2002.25051         9.91058        11.40426
     2002.25325         5.13005        11.19537
     2002.25599        11.29953        11.66701
     2002.25873         2.56000        12.45689
     2002.26146         2.41548        11.62947
     2002.26420        11.79695        11.37652
     2002.26694        10.64643        11.91833
     2002.26968         7.54990        12.01299
     2002.27242        28.99038        12.32306
     2002.27515         9.83885        11.60499
     2002.27789         6.74133        11.39284
     2002.28063         2.51980        11.78778
     2002.28361        14.25141        13.41649
     2002.28611        18.86375        12.00156
     2002.28884         8.23923        11.82694
     2002.29158        -1.63730        11.87917
     2002.29432        14.55118        11.92813
     2002.29706        16.79965        11.99993
     2002.29979        19.89313        11.60826
     2002.30253        15.80360        12.07990
     2002.30527        16.09808        11.61805
     2002.30801        10.25255        11.66375
     2002.31075         7.27103        11.40426
     2002.31348        18.08150        11.74534
     2002.31622        17.15098        12.54175
     2002.31896        14.46845        11.79104
     2002.32170        11.13093        11.12682
     2002.32444        11.43540        11.33572
     2002.32717        19.71088        12.07664
     2002.32991        11.40935        11.44506
     2002.33265        17.39583        11.20516
     2002.33539        22.33130        11.54624
     2002.33812         5.46878        11.09745
     2002.34086         9.31825        11.28186
     2002.34360        10.59873        11.74371
     2002.34634        16.44820        11.63927
     2002.34908        16.45968        11.31613
     2002.35181         5.82915        11.29655
     2002.35455        -2.33637        11.29655
     2002.35729        15.01010        11.12682
     2002.36003        20.25558        11.52340
     2002.36277        13.60205        11.47280
     2002.36550        45.42053        11.46301
     2002.36824        21.34000        11.43200
     2002.37098        20.49748        11.26228
     2002.37372        -2.31505        11.59357
     2002.37645        15.09043        11.61315
     2002.37919        18.03590        11.22148
     2002.38193        15.08038        11.73555
     2002.38467        13.24185        11.11540
     2002.38741        17.73933        11.18558
     2002.39014        20.55580        10.91630
     2002.39288        19.37128        11.33245
     2002.39562        10.84975        11.24433
     2002.39836        15.30623        11.26881
     2002.40110        30.52170        11.25901
     2002.40383         7.09818        11.07787
     2002.40657        16.16265        11.10235
     2002.40931        19.89313        11.33572
     2002.41205        19.52960        11.21495
     2002.41478        21.78508        11.97709
     2002.41752        26.42255        11.13009
     2002.42026        12.47903        11.12519
     2002.42300        24.80150        11.25738
     2002.42574        15.33598        11.26554
     2002.42847        11.06445        11.01748
     2002.43121        19.57793        11.81226
     2002.43395        22.46240        11.48423
     2002.43669         5.56588        11.46954
     2002.43943        12.13635        11.39610
     2002.44216        11.21183        11.22964
     2002.44490        16.44130        11.62947
     2002.44764        17.60178        11.36509
     2002.45038        26.33325        11.97709
     2002.45311        11.50473        11.35530
     2002.45585        10.37820        11.21495
     2002.45859        15.42768        11.16599
     2002.46133        22.46815        11.48586
     2002.46407        15.33262        11.37162
     2002.46680        12.51010        11.44343
     2002.46954        13.39657        11.71270
     2002.47228        28.17105        11.19863
     2002.47502        13.58552        11.01585
     2002.47775        17.96300        11.09582
     2002.48049         8.86547        11.06971
     2002.48323         6.85895        12.22678
     2002.48597        17.45142        12.22188
     2002.48871        17.19290        11.87427
     2002.49144         7.67437        11.53972
     2002.49418        13.71685        11.64906
     2002.49692        12.15732        11.81552
     2002.49966        17.22880        11.96566
     2002.50240        20.94627        11.90038
     2002.50513         5.99375        11.59031
     2002.50787         8.84522        11.50381
     2002.51061         4.17070        11.14478
     2002.51335        11.43817        11.36999
     2002.51608        11.63965        11.30961
     2002.51882         9.83312        12.10438
     2002.52156        -2.54240        11.54788
     2002.52430         7.19607        11.54788
     2002.52704        18.83055        11.73555
     2002.52977        14.95302        11.63437
     2002.53251        19.06750        11.50544
     2002.53525        18.40597        12.00646
     2002.53799         5.85745        11.40426
     2002.54073         5.53092        11.97056
     2002.54346        17.56540        12.18924
     2002.54894         6.71735        11.33409
     2002.55168        14.55082        11.71270
     2002.55441        10.83730        11.36509
     2002.55715        16.14377        11.59847
     2002.55989        29.15425        11.99340
     2002.56263        10.35172        12.34918
     2002.56537         1.34020        11.43527
     2002.56810        15.12767        11.19700
     2002.57084        19.75215        11.57072
     2002.57358         7.07562        11.47280
     2002.57632        10.84910        11.61479
     2002.57906        11.58257        11.43037
     2002.58179         7.40805        11.59031
     2002.58453        13.46852        11.28186
     2002.58727        20.67400        11.60826
     2002.59001         7.64047        11.55114
     2002.59274         4.93195        11.15457
     2002.59548        15.76742        11.22638
     2002.59822        15.51590        11.75840
     2002.60096        12.44137        11.18068
     2002.60370        -0.01315        11.12846
     2002.60643         9.48032        11.17415
     2002.60917         9.71280        11.29492
     2002.61191         3.95927        11.35204
     2002.61465         9.47775        11.48260
     2002.61739         8.85622        11.36509
     2002.62012        -5.44930        11.79430
     2002.62286         9.75717        11.46628
     2002.62560        11.28865        11.51524
     2002.62741        -1.39938        20.62167
     2002.63107        11.26260        11.45975
     2002.63381        -2.63993        11.12193
     2002.63655         6.47055        11.13009
     2002.63929         3.68602        11.04359
     2002.64203         2.84250        11.57072
     2002.64476         7.28897        11.25901
     2002.64750         3.48145        11.42058
     2002.65024         1.05792        11.58378
     2002.65298        11.42540        11.34061
     2002.65572         5.10687        11.68007
     2002.65845         7.70235        11.25738
     2002.66119        18.45882        11.69965
     2002.66393        20.81330        12.40140
     2002.66667         5.04677        11.15946
     2002.66940         6.97125        11.27860
     2002.67214        12.15372        11.84816
     2002.67488        23.23420        12.08969
     2002.67762        11.89367        11.47933
     2002.68036        16.31615        12.14028
     2002.68309         6.99562        12.01788
     2002.68583        20.42110        11.66375
     2002.68857        15.52357        12.07827
     2002.69131        15.69205        11.32103
     2002.69405        14.25652        11.10561
     2002.69678        13.87200        11.14804
     2002.69952        15.50447        11.57072
     2002.70226        14.91095        11.19047
     2002.70500        10.17342        12.33286
     2002.70773        18.05090        11.67027
     2002.71047        14.23837        11.41568
     2002.71321        12.13985        11.49892
     2002.71595        12.55332        11.25575
     2002.71869        13.49280        11.52013
     2002.72142        14.48427        11.95261
     2002.72416        17.12975        11.36836
     2002.72690        12.40122        11.29165
     2002.72964        13.23870        11.63927
     2002.73238         8.69717        12.07337
     2002.73511         6.78265        11.71923
     2002.73785         5.90712        12.30022
     2002.74059        29.78260        11.87101
     2002.74333        14.60707        12.22351
     2002.74606        24.70055        12.12233
     2002.74880        18.15102        12.14191
     2002.75154        28.41450        12.65436
     2002.75428        30.00497        11.80573
     2002.75702        24.85845        11.57888
     2002.75975        22.92392        11.98851
     2002.76249        20.50440        12.08153
     2002.76523        21.31987        12.24636
     2002.76797        18.65735        11.80573
     2002.77070        24.32382        12.13212
     2002.77344        15.58730        12.11580
     2002.77618        36.10177        12.57276
     2002.77892        12.63925        11.82205
     2002.78166        16.66572        11.93465
     2002.78439        16.92220        12.17129
     2002.78713        16.50967        12.30674
     2002.78987        24.00715        12.01788
     2002.79261        20.16462        11.77962
     2002.79535        21.51910        11.73555
     2002.79808        20.08157        11.64090
     2002.80082        26.29305        12.32306
     2002.80356         4.75852        11.79757
     2002.80630        25.35800        11.29329
     2002.80903        22.45847        12.02768
     2002.81177        28.62195        11.73229
     2002.81451        28.99142        12.20719
     2002.81725        26.85290        12.09296
     2002.81999        29.90837        11.82858
     2002.82272        24.22785        12.90405
     2002.82546        40.58332        11.75840
     2002.82820        28.10880        11.65232
     2002.83094        35.74827        11.46301
     2002.83368        30.48075        11.56746
     2002.83641        25.36422        11.83021
     2002.83915        23.62969        11.35204
     2002.84189        23.84017        11.13009
     2002.84463        21.80664        10.90977
     2002.84736        20.02912        11.35693
     2002.85010        30.70259        12.32959
     2002.85284        78.79707        15.12354
     2002.85558        54.40854        12.40793
     2002.85832        11.63802        11.91181
     2002.86105        33.93649        11.76819
     2002.86379        21.59797        11.96566
     2002.86653        26.45444        11.57072
     2002.86927        26.38192        11.58051
     2002.87201        26.12439        11.78125
     2002.87474        18.00187        11.61152
     2002.87748        22.86734        11.88733
     2002.88022        17.51482        11.17742
     2002.88296        17.69329        11.11377
     2002.88569        22.36577        10.93588
     2002.88843        31.63224        11.25738
     2002.89117        31.29872        11.19863
     2002.89391        15.30519        11.01748
     2002.89665        26.33867        11.54951
     2002.89938        19.72714        10.95873
     2002.90212        21.53462        11.47607
     2002.90486        22.12309        11.26228
     2002.90760        24.01657        11.63600
     2002.91034        19.50204        11.04196
     2002.91307        27.78452        11.33572
     2002.91581        34.36099        11.26065
     2002.91855        27.91547        11.29818
     2002.92129        27.25594        11.31124
     2002.92402        24.66742        11.79920
     2002.92676        24.99389        11.73882
     2002.92950        21.11337        11.76493
     2002.93224        23.07384        11.21006
     2002.93498        23.06532        11.50218
     2002.93771        20.73179        11.59683
     2002.94045        34.14927        12.11091
     2002.94319        24.03274        11.40589
     2002.94593        19.37722        11.17578
     2002.94867        26.24969        11.71107
     2002.95103         8.40897        13.71841
     2002.95414        44.67964        12.65272
     2002.95688        39.82012        13.05093
     2002.95962        45.00859        13.18638
     2002.96235        40.42607        12.88936
     2002.96509        11.28954        12.60213
     2002.96783        33.35602        12.42425
     2002.97057        17.49449        11.38631
     2002.97331        21.58797        11.32103
     2002.97604        25.91244        11.87101
     2002.97878        39.36692        11.63111
     2002.98152        29.52539        11.80410
     2002.98426        34.50087        11.71270
     2002.98700        26.13734        12.36386
     2002.98973        14.16682        11.59031
     2002.99247        32.32929        12.17455
     2002.99521        29.90777        11.48586
     2002.99795        23.95724        11.59847
     2003.00342        17.37819        11.74371
     2003.00616        41.09667        12.33286
     2003.00890        24.21214        11.99504
     2003.01164        18.31062        11.70291
     2003.01437        25.41109        11.92813
     2003.01711        16.30857        11.49565
     2003.01985        25.60104        11.33572
     2003.02259        39.00352        11.73555
     2003.02533        39.92799        12.29695
     2003.02806        22.95947        11.54788
     2003.03080        31.87394        11.48586
     2003.03354         5.24842        11.45648
     2003.03628        10.21289        11.21332
     2003.03901        20.10637        11.31613
     2003.04175        20.21484        11.35530
     2003.04449        16.09132        11.29165
     2003.04723        23.79579        11.07460
     2003.04997        17.69327        11.33735
     2003.05270        22.09474        11.13825
     2003.05544        30.96222        11.77635
     2003.05818        35.30769        11.20842
     2003.06092        37.21917        12.04236
     2003.06366        39.80964        11.71760
     2003.06639        33.17512        11.83674
     2003.06913        38.90559        11.65232
     2003.07187        40.21107        11.90201
     2003.07461        50.35454        11.90038
     2003.07734        29.63502        11.84000
     2003.08008        42.17549        12.18108
     2003.08282        27.92697        11.90365
     2003.08556        42.69144        11.96893
     2003.08830        38.18392        11.52340
     2003.09103        33.58139        11.71597
     2003.09377        37.31387        11.95261
     2003.09651        38.15234        11.53972
     2003.09898        40.14667        13.34305
     2003.10198        40.70429        12.17619
     2003.10472        36.52877        11.68007
     2003.10746        27.99824        11.55440
     2003.11020        35.90272        11.93302
     2003.11294        17.54319        11.86448
     2003.11513        54.21237        14.94402
     2003.11841        53.27114        13.55521
     2003.12115        45.03062        11.92486
     2003.12389        32.68109        11.89875
     2003.12663        45.87757        12.08316
     2003.12936        35.04904        12.06684
     2003.13210        24.42652        11.73718
     2003.13484        35.70999        11.79267
     2003.13758        26.79647        11.22964
     2003.14031        32.34994        11.14478
     2003.14305        39.95842        11.67517
     2003.14579        28.03189        10.91793
     2003.14853        33.40737        11.22474
     2003.15127        33.44784        12.04236
     2003.15400         1.88532        11.61315
     2003.15674        43.06479        11.93465
     2003.15948        36.75627        10.87876
     2003.16222        38.43774        11.25249
     2003.16496        29.94922        11.12519
     2003.16769        36.35669        11.28023
     2003.17043        38.40717        11.29655
     2003.17317        33.94864        11.13988
     2003.17591        27.35212        10.98811
     2003.17864        21.04059        11.09908
     2003.18138        28.41407        11.32593
     2003.18412        29.48754        10.96363
     2003.18686        33.38702        10.96199
     2003.18960        26.10649        10.82164
     2003.19233        18.26597        11.50218
     2003.19507         8.77444        11.27044
     2003.19781        16.45092        11.55603
     2003.20055        30.22639        14.60131
     2003.20329         3.37187        12.84040
     2003.20600        32.42033        11.55114
     2003.20876        41.95482        11.42221
     2003.21150        23.70629        11.24596
     2003.21424        29.50976        11.32429
     2003.21697        21.19824        11.00116
     2003.21971        23.52371        11.13009
     2003.22245        28.54119        11.09745
     2003.22519        33.08266        11.21332
     2003.22793        28.22514        11.38957
     2003.23066        16.23461        11.70291
     2003.23340        27.37209        11.46791
     2003.23614        13.65856        10.97995
     2003.23888        19.90104        11.39447
     2003.24162        15.35151        10.83960
     2003.24435        18.06099        10.98647
     2003.24709        18.30946        11.22148
     2003.24983        40.99894        11.35693
     2003.25257        41.77741        11.36020
     2003.25530        25.27189        11.49892
     2003.25804        29.31036        10.93752
     2003.26078        29.54784        10.72699
     2003.26352        23.42231        10.63397
     2003.26626        21.63779        10.95873
     2003.26899        25.40326        11.49565
     2003.27173        26.33374        11.49239
     2003.27447        28.77021        11.31777
     2003.27721        11.06769        10.74984
     2003.27995        21.01016        12.76207
     2003.28268        30.28064        13.54868
     2003.28542         9.54811        13.28104
     2003.28816        30.34659        11.20516
     2003.29090        30.74806        11.57072
     2003.29363        34.21754        11.26228
     2003.29637        27.09801        11.03380
     2003.29911        28.67049        10.80859
     2003.30185        28.51196        11.27207
     2003.30459        36.94044        11.76982
     2003.30732        35.01791        10.67477
     2003.30970        23.85819        13.70698
     2003.31244        -3.02633        13.26308
     2003.31554        29.02534        11.59031
     2003.31828        15.93481        10.57848
     2003.32101        35.04029        11.83021
     2003.32375        37.38676        10.79553
     2003.32649        24.49224        11.05828
     2003.32923         8.73571        10.74005
     2003.33196        25.07619        11.01422
     2003.33470        30.26766        10.99137
     2003.33744        31.99414        11.48260
     2003.34018        36.60261        10.93099
     2003.34292        29.32109        10.81349
     2003.34565        31.78856        10.84123
     2003.34839        49.72904        11.04033
     2003.35113        26.46351        11.13825
     2003.35387        37.27099        10.93588
     2003.35661        36.56446        10.82654
     2003.35934        24.25094        10.74005
     2003.36208        28.98241        10.52952
     2003.36482        22.64789        11.03054
     2003.36756        37.20836        11.11050
     2003.37029        25.65184        10.71883
     2003.37303        14.68131        10.90651
     2003.37577        28.54479        10.76126
     2003.37851        23.11526        10.51810
     2003.38125        29.80974        10.73515
     2003.38398        27.21721        10.87550
     2003.38672        16.80669        11.45159
     2003.38946        26.83516        10.85592
     2003.39220        26.88464        10.80696
     2003.39493        26.97211        10.72699
     2003.39767        24.21759        10.85265
     2003.40041        16.27006        11.11214
     2003.40315        17.79654        11.04033
     2003.40589         7.42001        11.12193
     2003.40839        19.79036        12.58581
     2003.41136        21.33496        10.60949
     2003.41410        19.65244        10.52626
     2003.41684        25.81791        11.34877
     2003.41958        23.57039        10.90814
     2003.42231        32.63086        10.87060
     2003.42505        27.77534        10.78574
     2003.42779        22.09781        10.90651
     2003.43053        24.22529        10.89345
     2003.43326        20.70076        10.72862
     2003.43600        24.91624        10.95547
     2003.43874        16.57771        10.99300
     2003.44148        24.72019        10.63234
     2003.44422        28.65966        11.13662
     2003.44695        27.49514        11.01585
     2003.44969        21.45461        10.96036
     2003.45243        26.13209        10.95710
     2003.45517        18.14656        10.66498
     2003.45791        18.26304        10.70088
     2003.46064        12.95251        10.59480
     2003.46338        26.82599        10.89019
     2003.46612        19.82546        10.74168
     2003.46886        28.55494        10.87060
     2003.47159        22.92541        10.96689
     2003.47433        23.41389        10.80369
     2003.47707        44.52936        11.78451
     2003.47981        26.69184        11.05502
     2003.48255        18.86231        10.70414
     2003.48528        20.44379        10.97179
     2003.48802        17.75826        10.66661
     2003.49076        25.78874        10.88692
     2003.49350        14.07821        10.92120
     2003.49624        14.67469        10.68129
     2003.49897        29.51816        11.01585
     2003.50171        27.15064        11.50544
     2003.50445         9.52111        11.06807
     2003.50719        16.58059        10.74657
     2003.50992         8.00006        10.69272
     2003.51266        14.17354        10.76779
     2003.51540        14.63601        10.71067
     2003.51814        24.76749        10.70414
     2003.52088        12.66096        10.74494
     2003.52361        18.05044        11.07460
     2003.52635        15.42891        10.60459
     2003.52909         8.33339        10.85755
     2003.53183        14.53586        10.61112
     2003.53457        12.03434        10.98484
     2003.53730         4.87581        11.17252
     2003.54004         2.19629        11.22148
     2003.54278         9.20976        10.80696
     2003.54552         6.45124        10.71883
     2003.54825        24.60371        11.15457
     2003.55099        16.97219        11.07950
     2003.55373        16.36966        11.04686
     2003.55647        17.86014        10.69598
     2003.55921        22.52561        10.57685
     2003.56194        27.87309        11.41732
     2003.56468        21.72756        11.12030
     2003.56742        11.94904        10.79064
     2003.57016        41.48851        11.66538
     2003.57290        23.25799        11.32103
     2003.57552        27.83040        11.33572
     2003.57837        25.48194        11.61152
     2003.58111        35.35741        11.34551
     2003.58385        35.58689        11.41242
     2003.58658        40.95136        11.09419
     2003.58932        32.05983        11.36020
     2003.59206        18.72331        10.73841
     2003.59480        19.04478        10.85102
     2003.59754        25.61626        10.74821
     2003.60027        15.89073        10.71720
     2003.60301        14.15921        10.77105
     2003.60575         0.88668        11.26065
     2003.60849        24.14416        10.70414
     2003.61123        12.99163        10.70251
     2003.61396         6.56011        10.52136
     2003.61670        19.16058        10.92120
     2003.61944        20.21706        10.61112
     2003.62218        17.09153        10.98484
     2003.62491        18.16301        10.44629
     2003.62765        21.56848        10.60296
     2003.63039        24.15296        11.01422
     2003.63313        26.00643        11.05665
     2003.63587        37.10991        11.09419
     2003.63860        30.78538        10.95873
     2003.64134        27.83186        10.58827
     2003.64408        20.06833        10.83633
     2003.64682        19.35381        10.78411
     2003.64956        27.16728        10.61275
     2003.65229        36.38676        11.05991
     2003.65503        21.14523        11.24759
     2003.65777        13.50471        10.69761
     2003.66051        18.84818        10.47567
     2003.66280        12.55442        12.70495
     2003.66598        25.52413        11.06807
     2003.66872        30.52361        10.90324
     2003.67146        25.58908        10.60786
     2003.67420        29.61756        10.60459
     2003.67693        29.14403        10.78085
     2003.67967        32.27651        10.90651
     2003.68241        34.14298        10.64866
     2003.68515        25.23146        10.99790
     2003.68789        19.27293        10.79880
     2003.69062        25.97041        10.48056
     2003.69336        26.98688        10.90977
     2003.69610        27.53936        10.49688
     2003.69884        24.01883        10.45935
     2003.70157        22.85831        10.54258
     2003.70431        17.75378        10.58338
     2003.70705        17.34526        10.59480
     2003.70979        22.81873        10.83144
     2003.71253        27.17121        10.41855
     2003.71526        28.87768        10.66824
     2003.71800        23.35416        10.52789
     2003.72074        29.37263        10.61765
     2003.72348        21.95511        10.86571
     2003.72621        16.20358        10.77432
     2003.72895        21.53306        10.85265
     2003.73169        19.32353        11.23943
     2003.73443        22.09701        10.77269
     2003.73717        24.54948        10.84776
     2003.73990        22.32696        10.47403
     2003.74264        28.39643        11.21822
     2003.74538        30.77091        11.28349
     2003.74812        27.28738        11.11703
     2003.75086        30.20986        10.82491
     2003.75359        28.87633        10.78574
     2003.75633        20.04981        10.65682
     2003.75907        39.75628        10.91793
     2003.76181        29.55676        11.19863
     2003.76454        21.77923        11.03543
     2003.76728        23.03271        11.14804
     2003.77002        30.64418        11.50708
     2003.77276        34.47466        11.13009
     2003.77550        37.55213        10.49035
     2003.77823        24.73761        10.71067
     2003.78097        32.01308        10.70414
     2003.78371        32.03256        11.33572
     2003.78645        34.32203        10.51157
     2003.78919        31.36451        10.41855
     2003.79192        27.86098        10.75963
     2003.79466        19.98546        10.56216
     2003.79740        28.26893        10.59480
     2003.80014        26.86941        10.63397
     2003.80287        27.16388        10.71067
     2003.80561        28.60936        11.16762
     2003.80835        30.42183        10.76126
     2003.81109        25.35131        10.56379
     2003.81383        25.52578        10.65682
     2003.81656        21.16626        10.56053
     2003.81930        29.11473        10.57195
     2003.82204        25.81521        10.70904
     2003.82478        37.46568        11.49239
     2003.82680         9.23177        17.25164
     2003.83025        20.79663        10.68293
     2003.83299        28.86311        10.61928
     2003.83573        30.23558        10.79553
     2003.83847        32.52506        11.34388
     2003.84120        37.18753        10.37775
     2003.84394        37.27301        10.99300
     2003.84668        28.05948        10.61438
     2003.84942        31.77096        10.49688
     2003.85216        24.19943        10.55074
     2003.85489        39.10291        13.18475
     2003.85763        54.13038        12.00646
     2003.86037        47.16386        11.07460
     2003.86311        35.15633        10.22597
     2003.86585        67.29581        13.56010
     2003.86858        57.96928        11.73555
     2003.87132        47.73776        10.72862
     2003.87406        40.88823        10.61928
     2003.87680        42.95071        10.97831
     2003.87953        28.76418        11.13988
     2003.88227        35.92466        10.65029
     2003.88501        40.54213        10.75473
     2003.88775        42.31461        11.62621
     2003.89049        33.03008        10.61928
     2003.89322        28.59056        10.63560
     2003.89596        34.20103        10.49851
     2003.89870        30.77851        10.92609
     2003.90144        25.49998        10.53115
     2003.90418        23.76446        10.29125
     2003.90691        27.45793        10.62254
     2003.90965        15.62441        10.55074
     2003.91239        38.07588        10.92609
     2003.91513        32.83436        10.43813
     2003.91786        31.91983        11.09582
     2003.92060        37.53631        10.72209
     2003.92334        23.95278        10.77269
     2003.92558        47.32599        13.71351
     2003.92802        36.64330        16.80448
     2003.93155        58.43921        11.94934
     2003.93429        48.23368        11.14478
     2003.93703        34.36416        10.84449
     2003.93977        31.38763        10.78085
     2003.94251        41.60111        11.21006
     2003.94524        40.04758        10.49688
     2003.94798        44.11706        10.95710
     2003.95072        32.50253        11.22801
     2003.95346        32.68201        10.99463
     2003.95619        37.64748        11.29002
     2003.95893        36.86896        10.88203
     2003.96167        36.51843        10.97668
     2003.96441        38.52990        10.99953
     2003.96715        32.69438        11.83347
     2003.96988        59.91285        11.52013
     2003.97262        36.53233        10.39080
     2003.97536        27.51980        10.67150
     2003.97810        42.82228        11.56256
     2003.98084        58.15075        11.84326
     2003.98357        43.38223        12.20067
     2003.98631        21.74470        11.30145
     2003.98905        22.24418        10.93099
     2003.99179        18.49765        11.19374
     2003.99452        36.82413        11.08929
     2003.99726        40.20960        10.87387
     2004.00274        11.05555        10.90324
     2004.00548        25.34703        10.64213
     2004.00821        24.74950        10.65192
     2004.01095        17.33998        10.46261
     2004.01369        30.56845        10.65682
     2004.01643        37.64793        10.93425
     2004.01916        33.23540        10.88203
     2004.02190        29.42788        10.72699
     2004.02464        33.80235        10.91630
     2004.02738        28.20983        10.99627
     2004.03012        22.55330        10.78248
     2004.03285        12.81478        10.71883
     2004.03559        25.43125        10.91467
     2004.03833        25.89573        10.51973
     2004.04107        35.23420        11.17742
     2004.04381        33.03668        10.93752
     2004.04654        32.83015        10.78574
     2004.04928        35.77363        10.68456
     2004.05202        31.83210        10.69761
     2004.05476        31.77558        10.75310
     2004.05749        22.79105        10.76616
     2004.06023        20.37853        10.57685
     2004.06297        26.08000        10.65029
     2004.06571        20.96048        10.52626
     2004.06845        35.10795        10.81185
     2004.07118        22.87443        10.51320
     2004.07315        20.98749        15.93626
     2004.07666        37.33538        10.84449
     2004.07940        32.41985        10.79390
     2004.08214        28.56133        10.58338
     2004.08487        25.57380        10.45445
     2004.08761        20.70828        10.59806
     2004.09035         9.03475        11.17905
     2004.09309        26.61223        11.39284
     2004.09582         9.38570        11.04686
     2004.09856         9.76318        11.34714
     2004.10130        34.68865        11.08113
     2004.10404        30.77013        10.76616
     2004.10678        25.71260        10.66987
     2004.10951        23.60308        10.50831
     2004.11225        22.16755        10.34348
     2004.11499        18.65403        10.59154
     2004.11773        23.68950        10.68782
     2004.12047        18.89798        10.85428
     2004.12320        14.77645        11.50544
     2004.12594        13.23793        10.84449
     2004.12868        18.14940        11.25575
     2004.13142        22.30288        11.81226
     2004.13322        15.83685        21.80486
     2004.13689        28.19783        10.82164
     2004.13963        21.18930        11.17252
     2004.14237        25.07978        11.41732
     2004.14511        17.61325        11.91833
     2004.14784        14.91473        11.23780
     2004.15058        16.68420        10.67966
     2004.15332        19.76568        10.72046
     2004.15606        17.18915        11.01259
     2004.15838        23.11540        12.84693
     2004.16153        29.94610        10.50667
     2004.16427        33.92658        10.44629
     2004.16701        16.09405        10.70904
     2004.16975       -16.35147        11.60010
     2004.17248        15.70000        10.86244
     2004.17522        22.98948        10.82654
     2004.17796        18.64895        10.59643
     2004.18070        11.59443        10.45445
     2004.18344        17.12990        10.59806
     2004.18617        16.86338        10.68782
     2004.18891        27.06785        10.63560
     2004.19165        22.26133        10.55074
     2004.19439        29.53280        10.85918
     2004.19713        20.28028        10.65029
     2004.19986        23.82275        10.66824
     2004.20260        22.36123        10.67966
     2004.20534        18.60470        10.61112
     2004.20808        31.71118        11.29655
     2004.21081        25.36365        11.12356
     2004.21355        20.31613        10.92446
     2004.21629        20.95860        10.80369
     2004.21903        22.39008        11.22964
     2004.22177        33.60255        11.34877
     2004.22450        30.50703        10.94241
     2004.22724        36.14950        11.13498
     2004.22998        15.17298        11.21169
     2004.23272        20.68745        11.04523
     2004.23546        26.02993        11.46954
     2004.23819        20.86240        11.02891
     2004.24093        22.59488        10.95384
     2004.24367        14.24235        10.96526
     2004.24582        11.44451        14.68780
     2004.24914        25.51630        11.06155
     2004.25188        33.16578        10.76779
     2004.25462        24.31925        10.80696
     2004.25736        32.82373        11.05502
     2004.26010        28.10220        10.62744
     2004.26283        21.88868        10.75473
     2004.26557        26.02015        10.71230
     2004.26831        26.38863        10.43650
     2004.27105        27.14410        10.45771
     2004.27287        15.09608        21.91420
     2004.27652        24.00505        10.65518
     2004.27926        15.93453        10.36306
     2004.28200        13.88700        10.82164
     2004.28474        15.73248        10.71720
     2004.28747        20.72395        10.45445
     2004.29021        14.01143        10.40712
     2004.29295        16.58290        10.55237
     2004.29569        31.42838        10.51647
     2004.29843        24.42485        10.40059
     2004.30116        39.01033        10.72862
     2004.30390        25.88380        11.01748
     2004.30664        33.56428        10.72209
     2004.30938        29.57075        10.70741
     2004.31211        25.04123        10.62254
     2004.31485        25.41170        10.56869
     2004.31759        19.48418        10.25535
     2004.32033        25.02465        10.64702
     2004.32307        26.20813        10.39407
     2004.32580        19.15860        10.43160
     2004.32854        16.20208        10.55074
     2004.33128        16.49955        10.36632
     2004.33402        17.84003        10.23576
     2004.33676        13.27650        10.89672
     2004.33949        22.51897        10.77758
     2004.34223        23.83245        11.21822
     2004.34497        21.02992        10.57848
     2004.34771        17.35040        11.03543
     2004.35044        20.28187        10.89345
     2004.35318        19.76935        11.05339
     2004.35532        17.91750        16.23328
     2004.35866        25.06930        10.49199
     2004.36140        21.55177        10.65192
     2004.36413        24.06525        10.67640
     2004.36687        28.31472        10.82654
     2004.36961        32.95120        10.53278
     2004.37235        22.68267        10.59643
     2004.37509        26.37015        10.70577
     2004.37782        23.41862        10.66824
     2004.38056        29.58310        10.97179
     2004.38330        21.67657        11.01259
     2004.38604        22.17605        10.54421
     2004.38877        29.03052        10.35000
     2004.39091        26.10968        14.76124
     2004.39425        23.61147        10.57195
     2004.39699        23.99895        10.93262
     2004.39973        20.04742        10.26351
     2004.40246        30.23090        10.79717
     2004.40520        29.18437        11.22638
     2004.40794        22.48185        10.53931
     2004.41068        31.42032        10.67313
     2004.41342        33.78480        10.50341
     2004.41615        32.94427        10.62581
     2004.41889        27.37975        10.45445
     2004.42163        27.40622        10.59317
     2004.42437        28.91670        10.54421
     2004.42710        12.77317        10.49199
     2004.42984        25.05065        10.58664
     2004.43258        24.92512        10.48709
     2004.43532        21.42960        10.68293
     2004.43806        29.78307        10.59806
     2004.44079        19.90155        10.36796
     2004.44353        23.52902        10.64050
     2004.44627        24.50150        10.60949
     2004.44901        19.42097        10.79064
     2004.45175        25.70445        10.94568
     2004.45448        26.05792        11.00116
     2004.45722        33.04040        11.18721
     2004.45996        17.55987        11.12356
     2004.46270        20.62735        10.92609
     2004.46543        22.28682        10.61112
     2004.46817        22.74130        10.74984
     2004.47091        19.81477        10.62091
     2004.47365        14.52825        10.93425
     2004.47639        12.40372        10.57685
     2004.47912        26.24520        10.71720
     2004.48186        13.88167        10.99953
     2004.48460        24.69515        10.65682
     2004.48734        25.30862        10.72209
     2004.49008        17.87010        10.63560
     2004.49281        12.54257        10.80696
     2004.49555        16.74205        10.46098
     2004.49829        23.40852        10.42181
     2004.50103        20.44000        10.59806
     2004.50376        30.78847        10.66008
     2004.50650        24.75895        10.57848
     2004.50924        34.00342        10.73678
     2004.51198        31.70790        11.22311
     2004.51472        43.02837        11.08276
     2004.51745        29.44185        10.50341
     2004.52019         9.78132        10.80533
     2004.52293         9.14580        10.54421
     2004.52567        16.60927        10.39243
     2004.52841        12.66775        10.40386
     2004.53114         2.02822        10.86244
     2004.53388        22.46570        10.54094
     2004.53662        11.29417        10.26188
     2004.53936        16.21165        10.93262
     2004.54209        17.75412        10.59643
     2004.54483         7.55660        10.52136
     2004.54757        11.34807        10.75800
     2004.55031        24.45155        10.78085
     2004.55305        28.46502        10.65682
     2004.55578        30.24250        10.75963
     2004.55852        18.84197        10.26840
     2004.56126        19.36445        10.77758
     2004.56400        18.47792        10.28309
     2004.56674        19.22440        10.63886
     2004.56947        12.32287        10.37122
     2004.57221        11.26335        10.54258
     2004.57495        -2.86618        10.48546
     2004.57769        10.53130        10.28799
     2004.58042        16.63077        10.33368
     2004.58316         8.13725        10.49851
     2004.58590         4.81072        10.28799
     2004.58864        19.15520        10.72536
     2004.59138        22.37467        10.54421
     2004.59411        13.76415        10.50341
     2004.59685        10.99062        10.57358
     2004.59959        11.93610        10.28636
     2004.60233        18.44157        10.29778
     2004.60507        14.15705        10.38427
     2004.60780        13.95752        10.05298
     2004.61054        15.70000        10.25372
     2004.61328        14.81447        10.81185
     2004.61602        17.01295        10.65192
     2004.61875        24.60242        10.92446
     2004.62149        13.69390        10.63397
     2004.62423        21.44637        10.78574
     2004.62697        22.04285        10.64866
     2004.62971        16.15532        10.33858
     2004.63244        25.93380        10.32226
     2004.63518        26.72727        10.52462
     2004.63792        33.23675        10.66008
     2004.64066        38.92922        10.68619
     2004.64339        34.29070        10.60296
     2004.64613        23.36417        10.33858
     2004.64887        34.16665        10.67313
     2004.65161        22.36412        10.46914
     2004.65435        22.26560        10.66334
     2004.65708        15.44907        10.52462
     2004.65982        24.78255        10.87387
     2004.66256        20.87402        10.76126
     2004.66530        25.80350        10.67640
     2004.66804        27.68697        10.50994
     2004.67077        19.69145        10.32879
     2004.67351        32.72992        10.91793
     2004.67625        21.19440        10.41691
     2004.67899        19.81787        10.45608
     2004.68172        19.81335        10.60786
     2004.68446        23.04982        10.37285
     2004.68720        19.02730        10.58011
     2004.68994        28.50377        10.71557
     2004.69268        18.80825        10.82164
     2004.69541        20.07772        10.46587
     2004.69815        24.95020        10.47893
     2004.70089        32.20967        10.70577
     2004.70363        21.35415        10.39570
     2004.70637        19.78162        10.27330
     2004.70910        26.71910        10.40549
     2004.71184        29.31957        10.39243
     2004.71458        31.41604        10.85428
     2004.71732        11.97152        10.56379
     2004.72005        26.78799        10.27656
     2004.72279        16.76747        10.17701
     2004.72553        14.76994        10.25861
     2004.72827        19.47942        10.40875
     2004.73101        26.67189        10.82164
     2004.73374        24.89837        10.64866
     2004.73648        17.23684        10.43160
     2004.73922        26.76632        10.48872
     2004.74196        26.68479        10.39407
     2004.74470        30.93027        10.71067
     2004.74743        23.46074        10.38754
     2004.75017        17.09422        10.32063
     2004.75291        18.63569        10.25045
     2004.75565        15.79517        10.36796
     2004.75838        17.47264        10.51483
     2004.76112        22.54712        10.21618
     2004.76386        21.32959        10.38427
     2004.76660        18.28707        10.35490
     2004.76934        19.35654        10.41365
     2004.77207        12.76502        10.79390
     2004.77481        26.32249        10.54258
     2004.77755        19.92697        10.32226
     2004.78029        21.11444        10.28799
     2004.78303        19.51292        10.42507
     2004.78576        12.03639        10.16233
     2004.78850        19.61187        10.32716
     2004.79124        23.38734        10.26677
     2004.79398        36.62982        10.72046
     2004.79671        44.19029        10.72862
     2004.79945        24.83477        10.73515
     2004.80121         3.16871        27.78279
     2004.80493        38.58472        11.42874
     2004.80767        55.60119        10.82328
     2004.81040        32.68967        10.49199
     2004.81314        34.52314        10.83796
     2004.81588        32.72762        10.38427
     2004.81862        31.29309        11.17742
     2004.82096         7.24436        13.80000
     2004.82409        14.64304        12.73432
     2004.82683         1.17452        12.70984
     2004.82957         4.31999        11.65559
     2004.83231        28.40247        10.46751
     2004.83504        24.56294        10.56053
     2004.83778        26.11942        10.36796
     2004.84052        30.31389        10.53278
     2004.84326        43.11437        11.90038
     2004.84600        29.24384        10.39407
     2004.84873        33.21932        10.26188
     2004.85147        34.17979        10.62418
     2004.85421        33.82727        12.23820
     2004.85695        33.15074        10.46098
     2004.85969        31.20822        10.33532
     2004.86242        28.73469        10.84123
     2004.86516        36.09217        10.98647
     2004.86790        30.57764        10.34511
     2004.87064        20.85012        10.31900
     2004.87337        29.18559        10.53605
     2004.87611        25.62607        10.57685
     2004.87885        21.82254        10.35980
     2004.88141        27.77892        11.32919
     2004.88433        27.59649        10.91793
     2004.88706        36.80597        10.62744
     2004.88980        23.38644        10.51810
     2004.89254        21.02892        10.38754
     2004.89528        26.78439        10.42181
     2004.89802        33.51087        10.60622
     2004.90075        30.45434        10.63723
     2004.90349        30.48382        10.69109
     2004.90623        17.98829        10.62581
     2004.90897        26.23277        10.80369
     2004.91170        25.82624        10.52952
     2004.91444        33.86872        10.03177
     2004.91718        27.93819        10.35490
     2004.91992        29.69467        10.56542
     2004.92266        26.63914        10.47567
     2004.92539        28.53762        10.21292
     2004.92813        26.05409        10.15417
     2004.93087        25.44457        10.21455
     2004.93361        33.31504        10.42671
     2004.93525        47.46393        23.20020
     2004.93908        14.48999        10.71067
     2004.94182        28.04547        10.80859
     2004.94456        21.58994        10.29125
     2004.94730        23.55542        10.32552
     2004.95003        31.64089        10.66171
     2004.95277        15.09737        10.33042
     2004.95551         9.90584        10.17212
     2004.95825        17.64132        10.50178
     2004.96099        22.79879         9.85551
     2004.96372        20.04127        10.07420
     2004.96646        21.64274        10.02361
     2004.96920        20.61322        10.06441
     2004.97194        22.66069        10.47077
     2004.97467        19.41417        10.36796
     2004.97741        20.66964        10.15090
     2004.98015        15.91412        10.01382
     2004.98289        24.09159        10.06767
     2004.98563        44.04207        10.79717
     2004.98836        25.83154        10.84612
     2004.99110        30.00602        10.90488
     2004.99384         9.56549        12.01299
     2004.99658        16.72597        11.05991
     2004.99932        33.97944        10.79880
     2005.00479        40.17639        10.74005
     2005.00753        30.76387        10.94078
     2005.01027        21.78734        12.33775
     2005.01300        28.54582        12.71637
     2005.01574        -1.39271        12.73922
     2005.01819        23.62461        13.62865
     2005.02122       -17.27376        11.41079
     2005.02396       -14.99928        11.33245
     2005.02669       -21.04181        12.07664
     2005.02943        -6.30433        11.65395
     2005.03217        -3.32086        10.70741
     2005.03491        11.09762        10.77595
     2005.03765        11.27609        10.66987
     2005.04038        19.56757        10.59970
     2005.04312        21.45704        10.47403
     2005.04586        20.83952        10.58174
     2005.04860        28.46199        11.05339
     2005.05133        22.37247        10.89182
     2005.05407        22.96394        10.83307
     2005.05681        12.12042        10.58011
     2005.05955        13.39789        10.73515
     2005.06229         5.75537        10.57358
     2005.06502         5.33384        10.72862
     2005.06776        12.14032        10.94568
     2005.07050        21.22479        11.78125
     2005.07324         7.24127        10.57522
     2005.07598         8.01474        11.42711
     2005.07871        -3.43878        10.74657
     2005.08145         5.25569        10.40059
     2005.08419         2.13117        10.08562
     2005.08693         3.51064        10.27004
     2005.08966        -3.11989        10.17701
     2005.09240         5.23059        10.28472
     2005.09514         5.09406        10.19007
     2005.09788         0.51454        10.12969
     2005.10062         3.06001        10.29288
     2005.10335        15.15549        10.38427
     2005.10609         8.00596        10.49199
     2005.10883        16.40144        10.49525
     2005.11157         7.25491        10.09705
     2005.11431         3.04239        10.84286
     2005.11704        10.19486        11.06155
     2005.11978         7.03334        10.29778
     2005.12252        16.46181        10.39570
     2005.12526        17.91629        10.68945
     2005.12799         9.11876        12.65436
     2005.13073        26.47924        12.73922
     2005.13347        58.83271        11.08276
     2005.13621        34.58719        10.80206
     2005.13895        13.84966        10.42997
     2005.14168        13.33014        11.40426
     2005.14442       -27.50339        16.69677
     2005.14716       -22.36491        12.48789
     2005.14990        21.92056        10.79064
     2005.15264        16.40604        10.46098
     2005.15537        10.90551        10.31247
     2005.15811        14.25599        10.29778
     2005.16085         8.03246        10.85592
     2005.16359         8.16194        10.30268
     2005.16632        17.63741        10.68456
     2005.16906         9.33389        10.29615
     2005.17180        10.73336        11.13335
     2005.17454        12.26484        10.63723
     2005.17728        -3.90469        10.37611
     2005.18001        -3.02321        10.23413
     2005.18275        -3.89874        10.52626
     2005.18549         4.13174        10.82001
     2005.18823         6.58321        10.64702
     2005.19097         8.76169        10.57848
     2005.19370        12.14416        10.60622
     2005.19644         8.50764        10.68293
     2005.19918        14.40711        10.58827
     2005.20192        13.57759        10.72536
     2005.20465        15.73406        10.80369
     2005.20739        21.90754        10.70088
     2005.21013        14.80501        10.54258
     2005.21287        15.85049        11.22311
     2005.21561        10.75496        12.19740
     2005.21834         5.38544        11.55930
     2005.22108        10.62891        11.72086
     2005.22382        12.36239        12.02278
     2005.22656         8.15186        11.42058
     2005.22930        12.74334        10.70088
     2005.23203         6.19981        10.46098
     2005.23477         7.79529        10.73515
     2005.23751        34.86876        11.54788
     2005.24025        33.96324        10.98647
     2005.24298        18.05271        10.60949
     2005.24572        12.08619        10.82001
     2005.24846        16.25366        10.67966
     2005.25120        16.66914        10.71720
     2005.25394        29.35861        11.50708
     2005.25667        18.90409        11.93792
     2005.25941        22.25756        10.87713
     2005.26215        13.85804        10.90814
     2005.26489        32.80551        11.44669
     2005.26762        24.35499        10.99953
     2005.27036        22.28646        10.79880
     2005.27310        14.67094        10.82817
     2005.27584        15.87441        11.23780
     2005.27858        14.30789        10.78411
     2005.28131        11.48936        10.92283
     2005.28405        10.21084        10.81512
     2005.28679        15.82231        10.79717
     2005.28953        16.85279        10.63886
     2005.29227        18.32826        10.51810
     2005.29500        23.35374        11.07787
     2005.29774        24.68121        11.35530
     2005.30048        18.13869        11.37162
     2005.30322        17.16016        10.73841
     2005.30595        13.36164        10.53442
     2005.30869        14.75411        10.44629
     2005.31143        17.30459        10.62254
     2005.31417        16.74606        10.42671
     2005.31691        15.16954        10.66334
     2005.31964        19.65601        10.78737
     2005.32238        18.97549        10.95057
     2005.32512        13.81296        10.52299
     2005.32786        13.17444        10.62254
     2005.33060        17.02191        10.65192
     2005.33333        14.46239        10.38101
     2005.33607        19.29986        10.77921
     2005.33881        11.54734        10.49362
     2005.34155        13.81281        10.55074
     2005.34428        15.87229        10.32063
     2005.34702        13.88576        10.64702
     2005.34976        12.05724        10.74168
     2005.35250        15.88971        11.12682
     2005.35524        12.72019        10.82980
     2005.35797        11.25466        10.75473
     2005.36071        11.67614        11.10561
     2005.36345        16.88861        11.22474
     2005.36619        14.74109        10.76453
     2005.36868        25.57043        12.56460
     2005.37166        26.62604        11.31940
     2005.37440        10.52151        10.75800
     2005.37714        19.15999        11.50708
     2005.37988        -1.40154        11.14478
     2005.38234        18.41879        12.64946
     2005.38535         8.90141        10.92772
     2005.38809         5.89489        10.73515
     2005.39083         2.89136        10.91304
     2005.39357         8.46784        10.95547
     2005.39904         4.77579        10.66008
     2005.40059        40.91362        31.07123
     2005.43042        37.10069        58.08862
     2005.43190        -0.16251        10.48546
     2005.43463         0.36496        10.44792
     2005.43737         8.83844        10.50667
     2005.44011         9.55091        10.77921
     2005.44285        16.40939        10.69272
     2005.44559        10.78586        10.48383
     2005.44832        -1.50166        10.69109
     2005.45106        12.87281        10.58990
     2005.45380        13.03429        10.74657
     2005.45654         2.97276        10.87224
     2005.45927        -2.29176        10.59480
     2005.46201         7.57071        10.52136
     2005.46475         0.98518        10.32716
     2005.46749         5.01166        10.64376
     2005.47023        -1.74987        10.45771
     2005.47296         4.87661        10.32552
     2005.47570         5.64008        10.28309
     2005.47844         8.73456        10.42834
     2005.48118         8.00003        10.70251
     2005.48392        18.93951        10.66171
     2005.48665        18.40298        10.44792
     2005.48939         4.99246        10.29452
     2005.49213         8.59993        10.23903
     2005.49487        12.39441        10.41855
     2005.49760         8.01588        10.18517
     2005.50034         6.93236        10.59154
     2005.50308        10.37383        10.35490
     2005.50582        11.63631        10.34674
     2005.50856        22.69078        10.46261
     2005.51129        20.47426        10.53931
     2005.51677         9.07121        10.32716
     2005.51951        19.09768        10.83470
     2005.52225        12.47816        10.86571
     2005.52498        15.88963        10.38264
     2005.52772        17.39411        10.47893
     2005.53046        17.09258        10.63560
     2005.53320        15.71806        10.21455
     2005.53593        14.16553        10.47077
     2005.53867        19.91101        10.51483
     2005.54141        18.26348        10.48219
     2005.54415        17.67196        10.72536
     2005.54689        21.89043        10.58338
     2005.54962         3.28791        10.54910
     2005.55221         2.00530        11.31287
     2005.55510         7.90086        10.56053
     2005.55784        14.29133        10.59643
     2005.56057         5.59181        10.85592
     2005.56331        19.75528        10.66008
     2005.56605         6.59676        10.90161
     2005.56879        22.27223        10.89672
     2005.57116        10.47551        12.78981
     2005.57426        14.92318        11.05991
     2005.57700         1.61966        11.12519
     2005.57974        10.25313        10.77921
     2005.58248        14.76861        11.04523
     2005.58522        20.73808        10.73678
     2005.58795        16.87856        10.60459
     2005.59069        17.85403        10.54910
     2005.59343        14.14351        10.56216
     2005.59617        24.86298        10.30757
     2005.59890        28.52646        10.47403
     2005.60164        17.17793        10.84286
     2005.60438        19.41841        10.65845
     2005.60712        19.37488        10.44466
     2005.60986        15.24236        10.72699
     2005.61259        20.13683        10.67150
     2005.61533        19.67331        10.35000
     2005.61807        21.72778        10.38264
     2005.61960       -12.29640        35.94105
     2005.62355        31.28573        11.37162
     2005.62628        18.83421        11.01748
     2005.62902        15.90068        10.92120
     2005.63176        25.56416        10.59154
     2005.63450        22.19763        10.68619
     2005.63723        31.42111        10.58174
     2005.63997        28.76058        10.65029
     2005.64271        32.81606        10.65845
     2005.64545        15.06553        10.60622
     2005.64819        17.32601        10.54747
     2005.65092        22.40248        10.74168
     2005.65366        25.59096        10.75800
     2005.65640        20.38043        10.50994
     2005.65914         6.70191        10.69109
     2005.66188        24.71538        10.66008
     2005.66461        19.83686        10.45445
     2005.66735        19.92233        10.54747
     2005.67009        20.02781        10.52299
     2005.67283        15.84328        10.44139
     2005.67556        26.58976        10.67803
     2005.67830        21.52123        10.37448
     2005.68104        15.92971        10.31410
     2005.68378        21.21618        10.81022
     2005.68652        17.79266        10.49851
     2005.68925        22.05113        10.69435
     2005.69199        12.80561        10.75963
     2005.69473        18.25508        10.82001
     2005.69747        11.48656        10.67150
     2005.70021        21.65503        11.05175
     2005.70294        21.00251        10.77269
     2005.70568         9.23098        10.73025
     2005.70842        16.32046        10.98647
     2005.71116        12.83893        10.69109
     2005.71389        20.30341        10.43323
     2005.71663        17.48888        10.89835
     2005.71937        15.81836        10.40386
     2005.72211        28.00083        10.99627
     2005.72485        19.69931        10.51647
     2005.72758        20.46378        10.60133
     2005.73032        14.62826        10.58174
     2005.73306        21.01073        10.64213
     2005.73580        24.29021        11.00606
     2005.73854        34.80868        11.38141
     2005.74127        34.18816        10.87713
     2005.74401        28.83863        10.54910
     2005.74675        25.41911        10.37938
     2005.74949        24.01758        10.66008
     2005.75222        13.84006        11.17578
     2005.75496        25.58953        10.85428
     2005.75770        21.57201        10.59154
     2005.76044        22.03648        10.40549
     2005.76318        22.62396        10.50504
     2005.76591        30.96643        10.47567
     2005.76865        20.34891        10.73352
     2005.77139        23.76338        10.37122
     2005.77413        23.39586        10.43323
     2005.77687        28.45033        10.67966
     2005.77960        24.36881        10.64050
     2005.78234        18.99228        10.44955
     2005.78508        23.96776        10.64376
     2005.78782        16.18323        10.92283
     2005.79055        25.53571        10.38427
     2005.79329        31.88418        10.41528
     2005.79603        30.64266        10.83307
     2005.79877        33.24413        10.76779
     2005.80151        34.44961        10.65682
     2005.80424        31.02008        10.45445
     2005.80698        24.68356        10.25535
     2005.80972        28.94803        10.57848
     2005.81246        25.44751        10.64866
     2005.81431        40.02050        18.65840
     2005.81793        38.11146        10.88529
     2005.82067        33.23893        10.71557
     2005.82341        33.39041        10.51810
     2005.82615        24.84988        10.64866
     2005.82888        22.50936        10.30431
     2005.83162        15.20583        10.53605
     2005.83436        19.86630        10.94568
     2005.83710         2.75178        10.87550
     2005.83984        22.03825        10.77105
     2005.84257        20.94673        10.95384
     2005.84531        19.00020        11.41242
     2005.84805        28.20468        11.41242
     2005.85079        18.29915        11.10071
     2005.85352         8.42263        10.95220
     2005.85626        29.09510        11.89549
     2005.85900        30.06158        10.69925
     2005.86174        27.63605        10.67150
     2005.86448        20.29553        10.91793
     2005.86721        27.96800        10.74168
     2005.86995        20.35348        10.84449
     2005.87269        14.68795        10.61765
     2005.87543        22.67743        10.58990
     2005.87817        15.74490        10.45935
     2005.88090        22.17738        10.56706
     2005.88364        24.45585        10.45608
     2005.88638        15.43033        10.76942
     2005.88912        18.28880        10.79390
     2005.89185        15.55128        10.56706
     2005.89459        22.96075        10.52136
     2005.89733        19.93323        10.57195
     2005.90007        28.75570        11.31124
     2005.90281        10.52018        10.67966
     2005.90554        16.94165        10.44629
     2005.90828        17.96113        10.66334
     2005.91102        14.92660        11.30145
     2005.91376        14.97908        10.73841
     2005.91649        10.01955        12.46668
     2005.92197       -22.31550        11.19374
     2005.92745       -11.25755        11.39447
     2005.93018         7.78193        11.14641
     2005.93292        17.16040        10.99790
     2005.93566        25.67088        10.76616
     2005.93840        23.95635        10.33042
     2005.94114        20.65283        10.34511
     2005.94387        21.39130        10.28472
     2005.94661        23.86878        10.46261
     2005.94935        23.16725        10.40386
     2005.95209         9.63773        10.47893
     2005.95483         4.45920        10.62907
     2005.95756        17.43668        10.35000
     2005.96030        20.81715        10.40875
     2005.96304        15.92063        10.92120
     2005.96578       -16.70490        12.85509
     2005.96851        24.13558        11.01422
     2005.97125        11.87205        10.78085
     2005.97271       -13.49516        90.61883
     2005.97673        13.97400        10.77758
     2005.97947        26.44048        10.69925
     2005.98220        15.07695        10.78085
     2005.98494        24.77843        11.14314
     2005.98768        18.44290        11.12682
     2005.99042        24.45838        11.17742
     2005.99316        29.18285        10.73189
     2005.99565        30.28919        11.84653
     2005.99808        33.84751        15.24267
     2006.00399       -21.06631        13.33652
     2006.00958        -6.87330        11.83021
     2006.01232        18.33218        10.66824
     2006.01506        31.10565        10.77921
     2006.01780        31.08713        10.81349
     2006.01935        17.46896        32.49431
     2006.02327        13.03808        10.59643
     2006.02601        13.62955        10.81512
     2006.02875         6.30103        10.86408
     2006.03149        12.10650        10.53605
     2006.03422         4.23798        10.69925
     2006.03696         5.36245        10.83144
     2006.03970         3.87393        11.01911
     2006.04244       -23.07860        11.11540
     2006.04517        -8.49312        11.50544
     2006.04791        13.47935        10.50504
     2006.05065        16.61583        10.57685
     2006.05339         7.82730        10.57195
     2006.05613        10.56678        10.10521
     2006.05886         4.22025        10.22760
     2006.06160         8.24473        10.37448
     2006.06434        18.57820        10.34837
     2006.06708         7.64568         9.96159
     2006.06982        12.28715        10.23576
     2006.07255        13.19763        10.20149
     2006.07529         6.35310        10.17049
     2006.07803         8.77358        10.11663
     2006.08077         8.36005        10.31900
     2006.08350        17.60253         9.97465
     2006.08624        14.28800        10.32389
     2006.08898        17.57348        11.30797
     2006.09172        17.54195        10.24229
     2006.09446        15.46943        10.40223
     2006.09719        15.99590        10.04972
     2006.09993         6.81238        10.02034
     2006.10267         7.17685        10.18517
     2006.10541         4.58533        10.10521
     2006.10815        16.81780        10.29125
     2006.11088        15.22928        10.49199
     2006.11362         6.90875        10.08889
     2006.11636        10.00623        10.31410
     2006.11910        10.98670        10.39896
     2006.12183        25.94818        10.70414
     2006.12457        14.02665        10.51810
     2006.12731         6.71613        10.46587
     2006.13005        12.19860        10.23740
     2006.13279        14.75708        10.62418
     2006.13552        14.03355        10.34837
     2006.13819       -10.01701        11.52013
     2006.14111         2.01356        12.06358
     2006.14374        18.21198        10.20802
     2006.14648        20.90045        10.11826
     2006.14921        16.52793        10.35816
     2006.15195        15.37040        10.15743
     2006.15469        14.04588        10.20965
     2006.28337        15.97020        10.47403
     2006.28611        29.69167        10.53931
     2006.28884         8.13815        10.67477
     2006.29158         6.53862        10.11989
     2006.29432         6.54110        10.07909
     2006.29706         3.45357        10.15743
     2006.29979         6.57405        10.33205
     2006.30253         1.36352        10.38917
     2006.30527        16.35000        10.62907
     2006.30801        23.64547        12.37855
     2006.31075        16.86495        10.84123
     2006.31348         6.10042        10.53605
     2006.31622         8.48690        10.66661
     2006.32170         7.54585        10.52789
     2006.32444         3.23732        10.34837
     2006.32717        10.05480        10.62744
     2006.32991         2.69527        10.32389
     2006.33265        -2.28025        10.49525
     2006.33539         0.67622        10.69761
     2006.33812         2.67970        10.35164
     2006.34086        -1.28883        10.21945
     2006.34360        -0.55835        10.22760
     2006.34634        -7.94788        10.14437
     2006.35181         1.81407        10.50504
     2006.35455        -1.33345        10.26677
     2006.35729        -2.91198        10.37938
     2006.36003        -3.96750        10.24229
     2006.36277        -1.51203        10.31247
     2006.36550        -5.62455        10.30104
     2006.36824        -2.69508        10.29615
     2006.37098        -0.90760        10.74331
     2006.37372        -2.31013        10.47077
     2006.37645         2.20335        10.22924
     2006.37919         1.68482        10.60786
     2006.38193        -0.48470        10.64376
     2006.38467         5.60277        11.06971
     2006.38741        10.20325        10.63070
     2006.39014         6.59772        10.72699
     2006.39288        11.12620        10.59480
     2006.39562         7.59367        10.78574
     2006.39836        17.94415        11.34061
     2006.40110        -1.80938        10.64866
     2006.40383         4.38910        10.37448
     2006.40657         8.61257        10.52789
     2006.40931         4.02805        10.44466
     2006.41205         2.09352        10.56379
     2006.41478         8.72600        10.48056
     2006.41752        -5.89153        10.71067
     2006.42026         2.83195        10.56053
     2006.42300         3.77542        10.67966
     2006.42574         3.12790        10.76289
     2006.42847        11.42637        11.20516
     2006.43121         0.51685        11.28676
     2006.43395         4.57532        10.71557
     2006.43669         7.62880        10.48219
     2006.43943         2.16327        10.68945
     2006.44216         9.38075        10.66171
     2006.44490         7.85422        10.58174
     2006.44764         3.27470        10.76779
     2006.45038        13.21017        10.52462
     2006.45311        12.60265        10.49199
     2006.45585         9.27612        10.61438
     2006.45859        17.94060        10.50667
     2006.46133        11.44207        10.97015
     2006.46407        19.16455        10.63397
     2006.46680        14.79402        10.72209
     2006.46954        20.21550        10.80369
     2006.47228        18.30197        10.85428
     2006.47502        21.25945        11.05665
     2006.47775        18.86492        10.85102
     2006.48049         4.84240        11.28349
     2006.48323        11.80887        11.01585
     2006.48597        14.66035        11.09092
     2006.48871        17.62682        11.16436
     2006.49144        40.30430        11.65559
     2006.49418        11.20877        11.15130
     2006.49692         6.18825        10.70251
     2006.49966         8.12372        10.88856
     2006.50240         4.18720        10.86244
     2006.50513        14.22667        11.10724
     2006.50787        12.17015        10.94731
     2006.51061        11.03562        10.85918
     2006.51335         7.08910        10.73025
     2006.51608        12.35957        10.87550
     2006.51882        22.10605        10.92446
     2006.52156        16.12952        10.97831
     2006.52430        17.18100        11.32919
     2006.52704        15.19247        10.78901
     2006.52977        20.21695        10.77595
     2006.53251        11.01342        11.04033
     2006.53525        12.99890        10.93262
     2006.53799        11.40937        10.73515
     2006.54073        18.11785        11.36836
     2006.54346        22.36532        10.56216
     2006.54620        12.03280        10.74005
     2006.54894        19.50927        10.94404
     2006.55168        20.77075        10.79227
     2006.55441        11.77322        10.60622
     2006.55715        17.97570        10.47893
     2006.55989        24.46017        10.47730
     2006.56263         9.08765        10.52462
     2006.56537        15.67312        10.51810
     2006.56810        12.11760        10.50504
     2006.57084        10.07107        10.27493
     2006.57358         4.58455        10.54747
     2006.57632        -1.40998        10.48709
     2006.57906        -3.89550        10.62907
     2006.58179        10.44897        10.66824
     2006.58453        15.50244        10.77269
     2006.58727        26.43092        10.90977
     2006.59001        21.19139        11.10235
     2006.59274        16.55887        10.93752
     2006.59548         8.77534        10.73515
     2006.59822        -1.59118        10.66661
     2006.60096        18.33029        10.48056
     2006.60370         4.01177        10.50178
     2006.60643         6.06824        10.49851
     2006.60917         9.21572        10.37448
     2006.61191        13.11719        10.77595
     2006.61465         4.28967        10.68619
     2006.61739        15.32814        10.69109
     2006.62012        16.06862        10.55726
     2006.62286         8.10609        10.72373
     2006.62560        13.74357        10.69272
     2006.62834         5.91204        10.69925
     2006.63107         6.25152        10.36306
     2006.63381         2.87899        10.47893
     2006.63655        -6.33253        10.68782
     2006.63929         0.68894        10.67313
     2006.64203        14.70942        11.23290
     2006.64476        10.30689        10.95710
     2006.64750        11.87337        10.96852
     2006.65024        13.91884        10.92936
     2006.65298        11.04432        11.15783
     2006.65572         8.71979        11.11540
     2006.65845        12.68527        11.30797
     2006.66119        16.69474        11.21658
     2006.66393        11.79122        11.11703
     2006.66667         8.96769        10.98647
     2006.66940         8.63217        11.37162
     2006.67214        -0.86536        11.45648
     2006.67488         5.16312        11.51197
     2006.67762         4.12959        11.95750
     2006.68036         4.60607        11.14804
     2006.68309        17.06754        11.58541
     2006.68583        10.80702        11.43527
     2006.68857        19.59549        10.95710
     2006.69131        14.18197        10.65518
     2006.69405        13.25144        10.68945
     2006.69678         9.94792        10.67640
     2006.69952        16.35539        10.70904
     2006.70226        12.23387        11.26554
     2006.70500         6.89434        11.12846
     2006.70773        11.44882        10.45445
     2006.71047        12.83129        10.42181
     2006.71321        10.20477        10.55563
     2006.71595        10.01824        10.92120
     2006.71869        14.60872        10.57195
     2006.72142        21.84019        10.85592
     2006.72416        16.43267        10.81022
     2006.72690        13.22614        10.62907
     2006.72964        12.82562        10.71557
     2006.73238        10.63609        10.82328
     2006.73511        12.09557        10.61928
     2006.73785         7.96904        10.73515
     2006.74059        12.06552        10.47730
     2006.74333        18.08499        10.60622
     2006.74606        10.33847        10.74331
     2006.74880        14.87794        10.74494
     2006.75154        19.04242        11.08766
     2006.75428         8.09789        10.99953
     2006.75702         6.20637        10.93425
     2006.75975         5.01884        10.70088
     2006.76249        11.88432        10.52462
     2006.76523        10.38079        10.80043
     2006.76797        18.38027        11.02238
     2006.77070         6.66074        10.58011
     2006.77344        16.99222        11.01259
     2006.77618        30.06569        10.92936
     2006.77892        12.03117        10.75310
     2006.78166        18.07464        10.51973
     2006.78439        19.46912        10.70741
     2006.78713        14.13559        11.05991
     2006.78987         4.47407        10.90161
     2006.79261        17.79554        10.86897
     2006.79535        10.65002        11.29329
     2006.79808        12.65449        10.67150
     2006.80082        14.01197        10.92772
     2006.80356        15.52944        10.81349
     2006.80630        12.49092        10.64213
     2006.80903        11.78439        10.62744
     2006.81177        14.36487        10.79390
     2006.81451        10.48534        11.02401
     2006.81725        -1.10618        10.58990
     2006.81999         4.23129        10.60949
     2006.82272         5.49477        10.62091
     2006.82546         9.03124        10.66987
     2006.82820         9.29672        10.34511
     2006.83094         5.39519        10.63886
     2006.83368         5.77467        10.58990
     2006.83641        13.01614        11.18721
     2006.83915         5.64262        10.73515
     2006.84189        10.54609        10.69435
     2006.84463         6.71257        10.63234
     2006.84736        -0.57396        10.74984
     2006.85010         4.55252        10.83307
     2006.85284        24.89199        11.68007
     2006.85558        15.10847        10.96036
     2006.85832        11.56194        10.84123
     2006.86105         9.70842        11.21822
     2006.86379        12.02389        11.31124
     2006.86653        11.39437        11.33735
     2006.86927         7.03684        11.79267
     2006.87201        11.66032        10.74168
     2006.87474        32.01879        10.62907
     2006.87748        15.42027        11.44343
     2006.88022        16.45474        10.86571
     2006.88296         9.79422        10.39080
     2006.88569        19.17169        10.52789
     2006.88843         1.36217        10.50015
     2006.89117         9.75964        10.67966
     2006.89391         4.10812        10.59970
     2006.89665        14.27859        10.68456
     2006.89938        11.99207        10.23250
     2006.90212        12.56354        10.24719
     2006.90486        23.15802        10.75800
     2006.90760        23.34749        10.53115
     2006.91034        13.80497        10.19333
     2006.91307         9.76844        10.36469
     2006.91581        12.93192        10.58827
     2006.91855        12.25039        10.53442
     2006.92129        11.14887        10.46914
     2006.92402         7.36934        10.29125
     2006.92676         8.01582        10.32552
     2006.92950        14.11429        10.86571
     2006.93224        11.82877        10.71557
     2006.93498         3.66824        10.69598
     2006.93771         3.34772        10.97505
     2006.94045        22.90219        11.19374
     2006.94319        15.86867        10.55237
     2006.94593        21.65414        10.93099
     2006.94867        26.68662        10.74494
     2006.95140        25.21209        10.52136
     2006.95414        21.72457        10.87060
     2006.95688        23.88504        11.03217
     2006.95962         9.14651        11.67354
     2006.96509        -2.65254        11.59357
     2006.96783        18.67794        11.13498
     2006.97057        14.09341        10.49199
     2006.97331        13.70789        11.42221
     2006.97604        14.97436        11.05175
     2006.97878        19.33284        10.77758
     2006.98152        13.38531        10.73189
     2006.98426         9.57779        11.21169
     2006.98700        25.25326        11.81226
     2006.98973        16.81674        11.07134
     2006.99247         2.97021        11.07134
     2006.99521        14.74069        10.68293
     2006.99795        10.04316        10.95710
     2007.00342        11.14511        10.85918
     2007.00616        20.37959        10.92936
     2007.00890        14.59906        11.24106
     2007.01164        19.19954        11.45975
     2007.01437        11.66701        10.87387
     2007.01711         5.51649        10.55400
     2007.01985         3.92296        10.47893
     2007.02259         8.33744        10.24392
     2007.02533        13.18791        10.58664
     2007.02806        10.91439        10.67640
     2007.03080        18.10786        10.27983
     2007.03354        10.78234        10.44792
     2007.03628        14.62981        10.19170
     2007.03901        15.87429        10.63560
     2007.04175        17.37976        10.32716
     2007.04449         8.87324        10.17701
     2007.04723         8.60471        10.25208
     2007.04997        13.39219        10.52136
     2007.05270        12.33066        10.41855
     2007.05544        12.93114         9.98118
     2007.05818         8.24961        10.07094
     2007.06092         6.01109         9.93222
     2007.06366         6.98156        10.19986
     2007.06639        12.38104        10.09215
     2007.06913         9.94551         9.79350
     2007.07187        19.29899         9.85062
     2007.07461        11.31746        10.10031
     2007.07734        16.24794        10.45771
     2007.08008         4.57941         9.91100
     2007.08282        12.22289         9.79023
     2007.08556        13.48536        10.07257
     2007.08830         9.88584         9.95180
     2007.09103        10.57831         9.91590
     2007.09377         8.38079         9.67110
     2007.09651        10.87526         9.93548
     2007.09925        13.48074        10.19170
     2007.10198        14.40921        10.06767
     2007.10472         9.62669        10.19497
     2007.10746        11.10316        10.32879
     2007.11020        17.77764        10.30594
     2007.11294        22.55311        13.18475
     2007.11567        16.29559        10.58827
     2007.11841        18.82506        10.23413
     2007.12115        11.21254        10.07583
     2007.12389         9.73401         9.80655
     2007.12663        12.74649        10.37285
     2007.12936        10.22896        10.19497
     2007.13210        21.25544        10.32879
     2007.13484        18.53591        10.49851
     2007.13758        20.79939         9.97628
     2007.14031         5.64986        10.42018
     2007.14305         2.32534        10.50341
     2007.14579        11.08281        10.50504
     2007.14853         8.73329        10.13948
     2007.15127        11.51676        10.07909
     2007.15400         1.27624        10.36796
     2007.15674        13.67171        10.08399
     2007.15948        20.17819        10.06278
     2007.16222        16.26866        10.29778
     2007.16496        12.53414        10.39407
     2007.16769         9.71361        10.07094
     2007.17043        12.06909        10.16885
     2007.17317        18.45056        10.68619
     2007.17591        20.29604        10.56542
     2007.17864        24.79751        10.42997
     2007.18138        16.62499        10.56542
     2007.18412        17.75146        10.76779
     2007.18686        22.86694        10.57522
     2007.18960        14.24441        10.48383
     2007.19233        12.91689        10.30594
     2007.19507        13.55536        10.09215
     2007.19781        18.33984        10.27330
     2007.20055         9.67331        10.66824
     2007.20329        12.71279        10.46424
     2007.20602        13.48526        10.10357
     2007.20876        13.80874        10.30104
     2007.21150         5.68221         9.97628
     2007.21424        20.89269        10.98974
     2007.21697        21.04916        11.16926
     2007.21971        25.12764        10.26351
     2007.22245        16.11211        10.12153
     2007.22519        20.48859        10.10194
     2007.22793        12.94006        10.21292
     2007.23066        16.52054        10.23576
     2007.23340        12.87201        11.58867
     2007.23614        21.02549        10.81185
     2007.23888        13.27196        10.05462
     2007.24162        14.96644        10.22597
     2007.24435        23.41991        10.20802
     2007.24709        18.39439        10.22108
     2007.24983        28.90586        10.17212
     2007.25257        14.72634         9.92569
     2007.25530        10.93681         9.93711
     2007.25804        16.97829        10.23903
     2007.26078        17.66976        10.30757
     2007.26352        17.83924        10.09541
     2007.26626        16.62671        10.10031
     2007.26899        12.37019        10.13295
     2007.27173        12.05666        10.24556
     2007.27447        11.50714        10.22108
     2007.27721        23.34561        10.12805
     2007.27995        13.92309         9.92569
     2007.28268        16.77856        10.28146
     2007.28542        23.76904        11.08113
     2007.28816        11.72051        10.69925
     2007.29090        18.27099        10.25045
     2007.29363        14.00246        10.06114
     2007.29637        14.92894         9.97791
     2007.29911        22.52841        10.43487
     2007.30185        15.58789         9.99913
     2007.30459        11.91436        10.23250
     2007.30732        21.82684        10.22108
     2007.31006        12.99531        10.20639
     2007.31280        14.09579        10.19333
     2007.31554        18.78226         9.95180
     2007.31828        17.10074        10.03177
     2007.32101        12.15121        10.05951
     2007.32375        13.32269        10.39407
     2007.32923        11.40264        10.18681
     2007.33196         3.75711        10.80859
     2007.33470        12.70258        10.41855
     2007.33744        12.13206        10.13295
     2007.34018        12.27453         9.91427
     2007.34292         8.23301         9.94201
     2007.34565         8.86548        10.07909
     2007.34839         8.57696        10.05135
     2007.35113         6.87743        10.24882
     2007.35387        10.59991        10.75637
     2007.35661        -2.21062        10.73515
     2007.35934        15.96986        10.38917
     2007.36208         6.92333        10.03830
     2007.36482         8.86381        10.23903
     2007.36756         4.31928         9.94690
     2007.37029         8.36176         9.97628
     2007.37303         8.59923        10.27656
     2007.37577        11.36971        10.58338
     2007.37851        15.04918        10.03993
     2007.38125        16.95766        10.46261
     2007.38398        12.27013        10.04809
     2007.38672         2.60861        10.06930
     2007.38946         6.79408         9.95833
     2007.39220         5.91856        10.30920
     2007.39493        12.92203        10.13458
     2007.39767        11.72151        10.05625
     2007.40041         9.06098        10.21129
     2007.40315         7.41846        10.13948
     2007.40589         9.39993        10.17538
     2007.40862        -0.90559        10.24882
     2007.41136        11.84488        10.03666
     2007.41410        12.77836        10.03177
     2007.41684        13.15883        10.28636
     2007.41958         8.98931         9.93385
     2007.42231        17.04778         9.96812
     2007.42505         7.76526        10.51157
     2007.42779        25.53173        10.03177
     2007.43053        19.93121        10.13458
     2007.43326        13.97168        10.03830
     2007.43600        13.84216        10.10847
     2007.43874         7.48863        10.19823
     2007.44148        14.12011        10.32716
     2007.44422        18.13558        10.23903
     2007.44695         7.34006        10.15253
     2007.44969         6.91953        10.07420
     2007.45243        16.27701        10.05788
     2007.45517        25.36548        10.13621
     2007.45791        16.10496        10.25372
     2007.46064        21.23243        10.07746
     2007.46338         9.95491        10.08562
     2007.46612        21.96038        10.37448
     2007.46886        18.13686         9.94038
     2007.47159        13.73733        10.15253
     2007.47433        12.80081        10.25535
     2007.47707        14.51828        10.24719
     2007.47981        12.37476         9.95506
     2007.48255        11.32623        10.07909
