# ================= DQRFIT RESULTS ================
# INPUT FILE: series/KANA.rad
# OUTPUT: LDETRENDED
# FILTER FUNCTION: f(t)
# f(t)=+line(t)+annual(t)+jumps(t)
# line(t)=+P 1+P 2*t
# annual(t)=+P 3*sin(2*pi*t+P 4)
# jumps(t)=+P 5*heav(t-2011.2498  )+P 6*heav(t-2011.3100  )
# heav(t)=(t<0?0:1)
# TOTAL OBSERVATIONS MTOT=  809
# INITIAL TIME INTERVAL= 2011.8190 - 2009.2183 =  2.6007
# TOTAL OBSERVATIONS AFTER PREFILTER M=  782
# TIME-SPAN= 2011.8190 - 2009.2183 =  2.6007
# OBSERVATIONS: USED M=   782 REJECTED MTOT-M=    27 %USED=   96.6625
# N=  6 PARAMETERS
# MAXSIG= 175.00000
# MAXRES=  58.45400
# SCALE FACTOR FOR LENGTHS: SCL=  10.00000
# SCALE FACTOR FOR SIGMAS: SCLSIG=   1.00000
# CHI^2=      0.000 DOF=   776 CHI^2/DOF=   0.00000
# RMS=     23.156 SDEV=     10.365 MEAN=   20.71070
#  P #       PARAMETER +-    SIGMA %error PARAMETER NAME
# P 3 =         0.00000 +-    0.000 ****** ANNUAL AMPLITUDE                   
# P 4 =         2.88384 +- ******** ****** ANNUAL PHASE                       
# P 5 =         0.00000 +-    0.000 ****** OFFSET 2011.2498                   
#       T            LDETRENDED       SIG_OBS
     2009.21834        29.81500        22.40392
     2009.22108        42.61000        22.79769
     2009.22381        25.13300        21.96139
     2009.22655        25.65500        22.16765
     2009.22929        25.41100        21.97639
     2009.23203        26.84700        21.91639
     2009.23477        28.85200        25.90289
     2009.23750        29.75300        22.04390
     2009.24024        33.36300        22.33266
     2009.24298        26.39400        22.12640
     2009.24572        33.57600        22.44517
     2009.24846        39.15600        22.58393
     2009.25119        22.22000        23.14272
     2009.25393        26.10200        22.87645
     2009.25667        23.30600        22.35142
     2009.25941        20.18300        22.33641
     2009.26214        29.35100        22.30266
     2009.26488        26.48900        22.88020
     2009.26762        32.37500        22.57268
     2009.27036        28.49200        22.77894
     2009.27310        20.50000        22.10015
     2009.27583        26.06400        22.65518
     2009.27857        27.44600        23.01521
     2009.28131        18.76100        23.72025
     2009.28405        20.90700        22.39267
     2009.28679        18.47300        22.66644
     2009.28952        15.24300        22.56893
     2009.29226        21.74300        22.91020
     2009.29500        20.63000        22.80144
     2009.29774        19.99300        22.74519
     2009.30047        23.40800        22.81644
     2009.30321        12.69400        22.88020
     2009.30595        16.27100        23.01146
     2009.30869        21.86900        22.59518
     2009.31143        23.25300        22.50518
     2009.31416        27.80000        22.89145
     2009.31690        18.04800        22.67019
     2009.31964        14.37000        22.21266
     2009.32238        20.14400        22.27641
     2009.32512        15.44300        23.28897
     2009.32785        17.31400        22.59893
     2009.33059        15.37900        22.45267
     2009.33333        21.07000        22.62893
     2009.33607        20.17000        23.17272
     2009.33880        20.35100        23.04896
     2009.34154        34.02400        23.96777
     2009.34428        24.35000        23.05646
     2009.34702        22.01800        22.60643
     2009.34976        12.52800        22.45267
     2009.35249        13.99600        22.94020
     2009.35523        14.83700        23.06771
     2009.35797        28.02400        23.08271
     2009.36071        24.51800        23.40523
     2009.36344        21.54400        22.82395
     2009.36618        23.20400        23.02271
     2009.36892        24.62200        23.00771
     2009.37166        16.88800        23.46524
     2009.37440        17.82700        23.42398
     2009.37713        25.38900        23.37523
     2009.37953        27.68800        26.94921
     2009.38347        17.72600        39.58751
     2009.38535        19.65600        23.25522
     2009.38809        20.42500        22.95895
     2009.39082        15.69400        22.65518
     2009.39356        16.49600        23.41273
     2009.39630        22.55200        23.40148
     2009.39904        21.88200        22.84645
     2009.40177        25.58400        23.72775
     2009.40451        29.32700        22.61393
     2009.40725        32.24000        23.21022
     2009.40999        21.30400        23.16897
     2009.41273        30.63800        23.30398
     2009.41546        21.33200        23.15397
     2009.41820        25.20500        23.26647
     2009.42094        20.60400        22.80144
     2009.42374        29.86500        46.04167
     2009.44096        32.16800        38.18867
     2009.44284        20.28000        23.34898
     2009.44558        21.16700        23.62650
     2009.44832        23.21100        24.25279
     2009.45106        28.15500        23.83276
     2009.45345        24.71500        27.23047
     2009.45685        25.92100        26.39417
     2009.45927        30.13200        24.24904
     2009.46201        32.79700        24.11778
     2009.46475        24.73500        24.85282
     2009.46632        29.51500        61.42889
     2009.47296        24.08800        22.65518
     2009.47570        22.25100        23.64525
     2009.47843        27.24600        23.49524
     2009.48117        35.12300        24.60156
     2009.48391        17.58900        22.71894
     2009.48665        25.78700        23.63025
     2009.48939        24.80900        24.25654
     2009.49212        30.13500        24.06527
     2009.49486        26.39300        23.69025
     2009.49760        24.71500        23.39398
     2009.50034        22.50400        23.13897
     2009.50308        24.98000        23.50274
     2009.50581        21.68200        23.34898
     2009.50855        24.37500        23.47274
     2009.51129        26.96400        24.17028
     2009.51403        24.88000        23.14647
     2009.51676        30.79300        23.71650
     2009.51950        25.73500        23.43148
     2009.52224        19.47900        25.73413
     2009.52498        18.95200        23.35273
     2009.52772        27.68100        23.30398
     2009.53045        35.65200        24.07277
     2009.53319        18.91500        23.50649
     2009.53593        16.95300        23.74275
     2009.53867        21.23800        23.65650
     2009.54141        10.98100        23.77276
     2009.54414        33.06600        24.11403
     2009.54688        44.60800        24.93908
     2009.54962        27.12800        23.73900
     2009.55236        27.40200        23.28897
     2009.55509        36.95600        23.85151
     2009.55783        28.72300        23.79526
     2009.56057        28.75900        26.24041
     2009.56331        29.07300        25.56537
     2009.56605        25.24500        23.94527
     2009.56878        32.98100        23.81776
     2009.57152        31.54600        23.73150
     2009.57429        37.87400        25.54287
     2009.57700        32.10200        23.66400
     2009.57974        35.67200        23.83276
     2009.58247        20.89100        24.25279
     2009.58521        28.10500        24.71407
     2009.58795        28.48600        23.51774
     2009.59069        37.13400        25.92164
     2009.59342        28.42700        23.78401
     2009.59616        37.14000        23.89651
     2009.59890        30.52200        23.58524
     2009.60164        30.15400        24.12528
     2009.60438        33.88800        24.12528
     2009.60711        28.01300        23.42773
     2009.60985        32.78200        23.77276
     2009.61259        34.95200        24.75157
     2009.61533        29.78200        23.80651
     2009.61807        38.13000        23.72400
     2009.62080        26.87700        22.98146
     2009.62354        27.18900        23.22522
     2009.62628        36.42300        23.73150
     2009.62902        37.63400        24.44405
     2009.63175        28.63200        23.83276
     2009.63449        25.86000        23.46149
     2009.63723        34.69900        25.41911
     2009.63997        23.57000        23.56649
     2009.64271        32.70700        23.53649
     2009.64544        32.15100        23.72025
     2009.64818        29.21500        23.99402
     2009.65092        31.09900        23.79526
     2009.65366        21.72300        23.12021
     2009.65639        27.90100        23.88151
     2009.65913        24.48500        24.14778
     2009.66187        22.03600        22.74144
     2009.66461        35.37900        23.64525
     2009.66735        34.30900        23.61150
     2009.67008        35.44000        24.18528
     2009.67282        44.36100        24.46655
     2009.67556        20.91700        23.45774
     2009.67830        33.99900        24.62406
     2009.68104        26.13800        24.17028
     2009.68377        16.74500        22.95145
     2009.68651        31.38900        23.16147
     2009.68925        39.21600        24.33154
     2009.69199        34.60600        23.28147
     2009.69472        26.38500        23.43148
     2009.69746        32.16100        22.43392
     2009.70020        41.43200        24.29029
     2009.70294        33.99700        23.24397
     2009.70568        26.73700        23.53274
     2009.70841        23.70900        23.53274
     2009.71115        28.10900        24.51155
     2009.71389        27.10000        25.34786
     2009.71663        43.87400        24.64656
     2009.71937        25.49100        24.28654
     2009.72210        16.44700        23.44649
     2009.72484        18.69400        23.95652
     2009.72758        24.79800        23.86276
     2009.73032        29.29400        23.16522
     2009.73300        32.26600        24.19278
     2009.79876        30.32900        23.56649
     2009.80150        28.85600        23.39023
     2009.80424        34.04600        23.62650
     2009.80698        29.28700        22.87645
     2009.81053        58.45400        42.77896
     2009.81245        43.90300        24.06152
     2009.81520        27.75100        23.50649
     2009.81793        38.28900        22.92895
     2009.82067        35.68500        22.72644
     2009.82340        42.17900        22.63268
     2009.82614        33.19100        23.76901
     2009.82888        27.51600        23.32273
     2009.83162        35.23000        23.21397
     2009.83436        29.13400        22.35517
     2009.83709        30.19700        22.63643
     2009.83983        33.10100        23.60400
     2009.84257        31.95300        23.01521
     2009.84531        23.12000        23.08271
     2009.84804        44.82600        24.06902
     2009.85078        32.58200        23.07896
     2009.85352        41.05900        22.52768
     2009.85626        28.69400        22.85020
     2009.85900        21.02800        22.98146
     2009.86173        30.14100        22.90645
     2009.86447        30.94300        23.97527
     2009.86721        25.19500        23.19147
     2009.86995        31.98000        22.72644
     2009.87269        26.84500        22.74519
     2009.87542        32.32800        23.11646
     2009.87816        29.63200        23.16897
     2009.88090        25.70600        23.03771
     2009.88364        34.64400        22.74894
     2009.88615        33.72400        25.30285
     2009.88911        31.12300        22.77144
     2009.89185        34.11100        22.70394
     2009.89459        32.55400        22.52393
     2009.89733        25.52400        22.35892
     2009.90006        26.68100        22.77519
     2009.90280        21.76100        22.86895
     2009.90554        27.27000        22.28016
     2009.90828        26.66700        22.64018
     2009.91102        20.73400        22.29891
     2009.91375        32.64900        22.68894
     2009.91649        26.18400        22.70019
     2009.91923        18.22800        22.37392
     2009.92197        17.63300        22.49017
     2009.92470        18.62200        22.68894
     2009.92744        25.42500        22.76019
     2009.93018        13.10400        22.17890
     2009.93292        19.89800        22.22766
     2009.93566        17.41500        22.01389
     2009.93839        23.23500        22.59143
     2009.94113        23.25900        22.01014
     2009.94387        26.30800        22.64393
     2009.94661        24.23400        22.68519
     2009.94935        22.17300        22.56518
     2009.95208        18.19000        22.08890
     2009.95482        12.10500        22.25766
     2009.95756        14.04900        22.52018
     2009.96030       -18.64800        23.23272
     2009.96303        17.11100        22.60268
     2009.96577        12.96400        22.99271
     2009.96851         8.46200        22.46017
     2009.97125        21.48000        22.88395
     2009.97399        18.52400        22.96270
     2009.97672        15.17800        22.26891
     2009.97946         9.78700        22.13765
     2009.98220        11.74100        22.06265
     2009.98494        11.77300        21.69887
     2009.98773        12.36200        22.16765
     2009.99041        19.06500        21.92389
     2009.99315        15.95600        22.01014
     2009.99589        20.19500        22.30266
     2009.99863        14.03900        22.13390
     2010.00410         2.21100        22.04390
     2010.00684        12.02700        21.86013
     2010.00958       -24.66200        22.55393
     2010.01505         2.91000        22.22766
     2010.01779        10.32200        21.89764
     2010.02053        12.90300        21.93139
     2010.02327        19.50700        22.42267
     2010.02601        14.76400        21.96889
     2010.02874        14.34100        22.19391
     2010.03148        22.21500        22.87645
     2010.03422        20.07700        22.44142
     2010.03696        21.40500        23.90776
     2010.03969        25.43100        23.18022
     2010.04243        23.65800        22.21266
     2010.04517        32.77100        22.31766
     2010.04791        25.35100        22.11890
     2010.05065        29.33200        22.94770
     2010.05338        28.16000        22.97771
     2010.05612        30.02700        22.21641
     2010.05886        24.88000        22.16015
     2010.06160        20.65900        22.55393
     2010.06434        17.36200        21.89764
     2010.06707        27.19200        22.09640
     2010.06981        14.65000        22.89145
     2010.07255        20.85500        22.96645
     2010.07529        16.36700        22.83145
     2010.07802        18.85800        22.71519
     2010.08076        19.29400        22.13390
     2010.08361        11.20200        35.05722
     2010.08624        28.97600        22.46017
     2010.08898        31.79100        22.92145
     2010.09171        34.12500        22.16390
     2010.09445        27.47000        22.80894
     2010.09719        24.84000        22.56143
     2010.09993        17.03700        22.16390
     2010.10267        20.59000        22.26891
     2010.10540        22.85000        22.91395
     2010.10814        22.22400        22.35517
     2010.11088        23.33500        23.40898
     2010.11364        19.07500        22.14140
     2010.11635        25.49000        22.77894
     2010.11909        22.96500        22.49392
     2010.12183        21.23200        22.97770
     2010.12457        20.44600        21.96889
     2010.12731        16.13800        23.06771
     2010.13004        18.11100        23.28147
     2010.13278        16.15300        22.47142
     2010.13552        26.13800        22.58018
     2010.13826        17.40300        22.16015
     2010.14100        20.56100        22.03640
     2010.14373        19.08000        22.63268
     2010.14647        18.14900        22.45267
     2010.14921        18.68400        22.28391
     2010.15195        23.57100        22.35892
     2010.15468        18.02000        22.17890
     2010.15742        25.26500        22.86895
     2010.16016        22.18500        22.38142
     2010.16290        17.69700        22.46017
     2010.16564        22.61800        22.46017
     2010.16837        22.64300        22.27266
     2010.17111        20.07800        22.32891
     2010.17385        16.63700        22.34391
     2010.17659        23.45700        22.41892
     2010.17933        29.12600        22.22766
     2010.18206        34.88300        22.52018
     2010.18480        32.44600        22.23141
     2010.18754        34.97500        22.46017
     2010.19028        38.20000        22.26516
     2010.19301        29.40300        22.55018
     2010.19575        26.88400        22.46767
     2010.19849        17.85700        22.89520
     2010.20123        19.20300        22.40767
     2010.20397        28.93500        23.10521
     2010.20670        28.66700        23.20272
     2010.20944        29.88600        22.39267
     2010.21218        22.80900        22.06640
     2010.21492        30.03700        22.55768
     2010.21766        30.34900        22.60268
     2010.22039        25.00100        22.37392
     2010.22313        19.07700        22.31016
     2010.22587        23.19400        22.32891
     2010.22861        29.05900        22.63643
     2010.23134        25.03100        22.39267
     2010.23408        20.69100        22.65143
     2010.23956        27.94700        23.21772
     2010.24230        35.55000        23.18772
     2010.24503        29.17200        22.80894
     2010.24777        25.66200        22.76769
     2010.25051        31.83100        23.69400
     2010.25325        33.12200        22.69644
     2010.25599        31.61600        22.49017
     2010.25872        33.14300        23.01146
     2010.26146        32.15800        22.86145
     2010.26420        40.89000        23.45774
     2010.26694        29.09400        23.25147
     2010.26967        32.91900        23.18772
     2010.27241        21.93500        22.68519
     2010.27515        30.76700        22.65143
     2010.27789        23.90000        22.92520
     2010.28062        23.37300        22.54643
     2010.28336        16.65300        22.77144
     2010.28610        21.85300        22.64768
     2010.28884        21.91200        22.44892
     2010.29158        26.07200        23.33773
     2010.29432        27.76800        23.22522
     2010.29705        31.87600        23.18022
     2010.29979        29.47000        23.70150
     2010.30253        30.23800        23.43898
     2010.30527        34.34200        24.13278
     2010.30800        24.31400        23.68275
     2010.31074        23.85100        22.95520
     2010.31348        20.64900        22.56518
     2010.31622        28.27600        22.98521
     2010.31895        33.49800        23.84776
     2010.32169        31.03400        23.49899
     2010.32443        29.18800        23.04896
     2010.32717        33.23100        23.44273
     2010.32991        31.12700        22.70394
     2010.33265        29.75000        23.09771
     2010.33538        37.38300        24.65406
     2010.33812        19.42800        23.14272
     2010.34086        21.63600        22.89145
     2010.34360        18.42100        22.76394
     2010.34633        21.63600        23.87776
     2010.34907        18.89800        22.88020
     2010.35181        22.07700        22.98896
     2010.35449        23.43000        23.51399
     2010.35728        17.48300        23.13897
     2010.36002        15.78600        23.29272
     2010.36276        19.38100        23.20647
     2010.36550        17.58500        23.66400
     2010.36824        24.26500        24.12153
     2010.37098        18.40100        22.85020
     2010.37371        32.39200        23.03396
     2010.37645        30.51500        23.60024
     2010.37919        19.69800        25.31410
     2010.38193        35.38700        24.63906
     2010.38466        21.95000        23.22147
     2010.38740        30.56400        23.16897
     2010.39014        25.49700        23.21772
     2010.39288        19.80800        24.22653
     2010.39561        18.96300        23.73525
     2010.39835        25.46100        23.19147
     2010.40109        21.00700        23.29648
     2010.40383        26.99400        23.63400
     2010.40657        21.69600        23.42023
     2010.40931        28.42100        23.75400
     2010.41204        23.29700        23.15772
     2010.41478        25.88900        23.51024
     2010.41752        33.53400        23.13897
     2010.42026        33.49500        24.12153
     2010.42299        35.06000        23.58524
     2010.42573        21.17100        23.20272
     2010.42847        25.26900        23.30773
     2010.43121        25.03000        23.41648
     2010.43394        27.73800        23.88526
     2010.43668        20.51600        24.26029
     2010.43942        25.44000        23.52524
     2010.44216        24.56200        23.25897
     2010.44490        24.40800        23.79151
     2010.44764        23.19900        24.37654
     2010.45037        21.69300        23.94902
     2010.45311        24.11800        23.57024
     2010.45585        25.94900        24.20028
     2010.45859        29.82700        24.24904
     2010.46132        29.87000        24.17403
     2010.46406        22.11200        23.92651
     2010.46680        27.81700        23.06771
     2010.46954        25.68300        23.81401
     2010.47227        26.26800        23.71650
     2010.47501        25.33500        23.81776
     2010.47775        31.70900        24.98783
     2010.48049        33.80300        24.21528
     2010.48323        39.16200        23.80651
     2010.48597        36.39200        23.57774
     2010.48870        35.54600        32.15454
     2010.49144        36.17400        24.19278
     2010.49418        25.54200        23.53274
     2010.49692        24.58900        22.93645
     2010.49965        30.63500        22.91770
     2010.50239        31.61600        23.21397
     2010.50513        35.80500        23.81026
     2010.50787        28.70200        23.60399
     2010.51060        29.34400        23.19897
     2010.51334        24.34100        23.15022
     2010.51608        22.77600        22.93645
     2010.51882        29.34900        23.21772
     2010.52156        24.65300        23.57774
     2010.52430        42.06700        24.20403
     2010.52703        13.61000        24.47030
     2010.52977        30.86300        22.80894
     2010.53251        22.30900        22.79394
     2010.53525        28.07700        23.30023
     2010.53798        27.90700        23.99402
     2010.54072        30.41600        23.51024
     2010.54329        24.65800        25.53912
     2010.54731        15.44500        51.58452
     2010.54893        27.96000        23.19522
     2010.55167        32.14600        24.05777
     2010.55441        29.03800        23.49149
     2010.55715        30.39400        23.78026
     2010.55890         3.80900        60.36382
     2010.82389         6.35600        59.25000
     2010.82546        22.04100        22.67394
     2010.82820        35.98300        23.13522
     2010.83093        42.39300        23.85901
     2010.83367        30.46800        24.08403
     2010.83641        23.99900        24.12903
     2010.83915        14.86800        22.57643
     2010.84188        15.07500        22.51268
     2010.84462        31.15900        22.80144
     2010.84736        40.24000        22.78269
     2010.85010        31.34900        23.21397
     2010.85284        28.16400        22.40767
     2010.85557        34.04100        22.13015
     2010.85831        27.18600        22.11890
     2010.86105        21.61800        23.75775
     2010.86379        17.73600        22.11890
     2010.86633        13.23800        24.33529
     2010.86927        15.04400        22.39642
     2010.87200        24.09000        22.80144
     2010.87474        24.33500        23.39023
     2010.87748        29.30200        22.02514
     2010.88021        25.43100        22.02890
     2010.88295        29.17000        22.37392
     2010.88569        21.07000        21.36885
     2010.88843        20.25900        22.27266
     2010.89117        23.20600        22.04765
     2010.89390        21.56100        21.00133
     2010.89664        21.48200        21.24885
     2010.89938        26.87600        21.20009
     2010.90212        26.93400        21.27885
     2010.90485        22.35000        21.18509
     2010.90759        30.81300        21.09134
     2010.91033        25.84400        21.51136
     2010.91307        12.63200        21.12134
     2010.91581         8.15900        21.72513
     2010.91854         7.70500        21.24135
     2010.92128        14.41500        21.21509
     2010.92402        10.00100        21.29010
     2010.92676        20.62800        20.94508
     2010.92950        19.59800        21.49636
     2010.93223        15.97000        21.40261
     2010.93497         7.03100        22.73394
     2010.93771        21.39200        21.33510
     2010.94045        17.24300        21.99514
     2010.94318        14.02400        21.52261
     2010.94592         3.81100        22.32891
     2010.94866        21.17900        22.44142
     2010.95140        29.66100        22.05890
     2010.95414        24.85800        21.23759
     2010.95687        16.51000        21.25260
     2010.95961        14.30100        21.90889
     2010.96235        21.05900        21.17384
     2010.96509        18.49000        21.26385
     2010.96783        22.31800        21.31635
     2010.97056         7.14800        21.37260
     2010.97330         0.46600        21.62387
     2010.97604        16.89700        21.56387
     2010.98151        11.39600        21.92389
     2010.98425        23.44600        21.50386
     2010.98699        23.29600        21.64637
     2010.98973        28.34400        22.11890
     2010.99247        29.90400        22.55768
     2010.99520        21.07200        21.78513
     2010.99794         8.48300        21.26760
     2011.00342        22.38300        21.54136
     2011.00616        20.98600        21.35385
     2011.00889        15.60600        22.17515
     2011.01163        18.64200        21.32760
     2011.01437        16.06100        21.57887
     2011.01711        22.94000        21.86763
     2011.01984        24.45800        21.50011
     2011.02258         8.23200        21.33885
     2011.02532         8.49300        22.00264
     2011.02806        10.51300        21.98764
     2011.03080        12.53200        20.72756
     2011.03353        13.57400        21.52636
     2011.03901         7.45100        21.87138
     2011.04175        27.86200        22.53893
     2011.04449         8.41100        21.63512
     2011.04722        17.29500        22.01764
     2011.04996        13.16400        21.92389
     2011.05270         8.82500        21.37260
     2011.05544        19.57400        21.83013
     2011.05817        14.47700        21.54136
     2011.06091        20.74400        21.57512
     2011.06365        20.79600        21.47011
     2011.06639        20.39200        21.69512
     2011.06913        15.23300        22.86145
     2011.07186        10.13500        21.95764
     2011.07460         5.99100        21.87514
     2011.07734        20.21200        21.71763
     2011.08008        14.72000        21.56387
     2011.08282         2.41100        21.50011
     2011.08555         5.94200        21.80763
     2011.08829         6.50900        21.82638
     2011.09103         6.01300        21.51886
     2011.09377        21.47200        22.20891
     2011.09650        15.75400        21.70262
     2011.09924        -1.83900        21.88264
     2011.10472        15.95300        21.71763
     2011.10746         7.82400        21.50761
     2011.11019        14.07100        21.60887
     2011.11293        20.44400        22.05890
     2011.11567        20.04000        22.10015
     2011.11841        15.72300        22.77519
     2011.12115        12.88200        22.16015
     2011.12388        25.67300        22.99646
     2011.12662        24.01300        22.70019
     2011.12936        21.30000        22.11515
     2011.13210        12.54200        21.65012
     2011.13483         8.53600        21.41761
     2011.13757         5.64300        21.61637
     2011.14031        16.88800        21.82638
     2011.14305        16.57400        21.79638
     2011.14579        12.42400        21.63887
     2011.14852        12.83400        21.39135
     2011.15126         6.20500        21.21134
     2011.15400        15.89600        21.24134
     2011.15674        22.19900        22.10390
     2011.15948        35.99800        21.97264
     2011.16221        17.32100        21.72138
     2011.16495         6.23700        21.86388
     2011.16769        18.20500        21.66887
     2011.17043        16.27000        21.88639
     2011.17316         1.23600        21.77763
     2011.17590        10.56500        21.55261
     2011.17864        17.71200        21.54136
     2011.18138        12.17700        21.40636
     2011.18412        14.73600        21.82638
     2011.18685        18.99700        21.93139
     2011.18959        23.29000        21.92764
     2011.19233        20.63100        21.78513
     2011.19507        13.96600        21.79263
     2011.19780        17.72100        22.49017
     2011.20054        17.13200        21.77763
     2011.20328        27.19400        22.88770
     2011.20602        21.02200        22.20516
     2011.20876        15.74100        21.89389
     2011.21149        20.79000        22.01764
     2011.21423        13.63400        21.82638
     2011.21697        18.18300        22.97770
     2011.21971        19.72900        22.50142
     2011.22245        15.65800        21.54886
     2011.22518        21.05000        21.57512
     2011.22792        18.73900        21.80013
     2011.23066        16.54300        21.74013
     2011.23340        21.24400        21.84138
     2011.23613        23.88400        22.25016
     2011.23887        22.72700        22.11140
     2011.24161        22.75200        22.18265
     2011.24435        16.41200        22.19015
     2011.24685        14.02300        24.50780
     2011.31006         9.58400        20.80257
     2011.31279        14.97600        21.10259
     2011.31553        19.02800        21.29385
     2011.31827        17.99100        20.97133
     2011.32101        17.37300        21.53761
     2011.32375         1.44500        21.07633
     2011.32648         3.00200        21.03508
     2011.32923         4.04100        21.14384
     2011.33196         6.30400        21.14009
     2011.33470         4.40400        21.66137
     2011.33744         2.54900        21.72888
     2011.34017         1.18000        22.02889
     2011.34291         9.99700        21.82263
     2011.34565        10.37100        22.01764
     2011.34839        11.30200        21.77013
     2011.35112         1.73300        22.54643
     2011.35386        -0.39400        21.55261
     2011.35660         3.61500        21.51886
     2011.35934        -9.53200        22.34766
     2011.36208        -7.29200        21.84888
     2011.36481         3.93000        22.17890
     2011.36756         0.92400        22.15640
     2011.37029        11.32200        22.01764
     2011.37303        -0.07400        21.80013
     2011.37577         3.14100        21.77388
     2011.37850        -0.81100        21.99889
     2011.38124        -6.78500        22.31016
     2011.38398        -0.51800        21.81138
     2011.38672         0.46600        21.87889
     2011.38945        -3.47000        22.06640
     2011.39219         0.84200        21.83013
     2011.39493        -7.49400        22.30641
     2011.39767         4.69000        35.16223
     2011.41796         6.26000        49.22187
     2011.41957        -1.06300        22.82019
     2011.42231       -12.49400        22.71144
     2011.42505        -3.09100        22.57643
     2011.42778        -3.83500        22.76019
     2011.43052        -2.51700        22.34766
     2011.43326        -3.83600        22.25766
     2011.43600       -12.04800        22.59518
     2011.43874        -4.41200        22.52393
     2011.44147        -3.21000        22.62143
     2011.44421        -1.35000        22.48267
     2011.44695         5.41700        22.52018
     2011.44969        -7.40400        22.17140
     2011.45243        -3.76900        22.09640
     2011.45516        -3.09400        22.21266
     2011.45790         2.63900        21.83763
     2011.46064         2.32300        22.11140
     2011.46338         0.82100        21.85638
     2011.46611         1.25400        22.25016
     2011.46885         5.52600        23.00771
     2011.47159        -3.78100        22.92520
     2011.47433         5.45300        22.50517
     2011.47707        10.68600        21.84513
     2011.47980         5.30700        21.98764
     2011.48255        -1.93700        22.08890
     2011.48528         2.18600        22.37767
     2011.48802         9.61900        22.34766
     2011.49076        14.26200        22.12640
     2011.49349         8.95400        22.45642
     2011.49623         3.85900        22.24266
     2011.49897         8.36500        22.49392
     2011.50171         5.19400        22.82770
     2011.50444        -0.07100        22.65893
     2011.50718        -1.80100        22.31766
     2011.50992         1.64500        22.41142
     2011.51266         0.67100        22.51268
     2011.51540         7.33300        22.44142
     2011.51813         8.31800        22.39642
     2011.52088        16.06300        22.00264
     2011.52361         4.80500        22.24266
     2011.52635         9.99500        22.67769
     2011.52908         3.33700        22.74519
     2011.53182         8.41800        22.87645
     2011.53456         7.06300        22.22016
     2011.53730        14.78900        22.32891
     2011.54004        13.67600        22.42642
     2011.54277        -1.48200        22.73769
     2011.54551         1.83000        23.21772
     2011.54825         6.01200        22.71144
     2011.55099        12.09600        22.76394
     2011.55373         9.00800        23.03396
     2011.55646         7.21500        22.39267
     2011.55920        -1.13400        22.46392
     2011.56194         7.85800        22.98146
     2011.56468        13.32700        22.87270
     2011.56741        13.74100        23.13521
     2011.57015         9.18600        23.02271
     2011.57289         6.39700        22.67394
     2011.57563         9.61200        22.55768
     2011.57837         6.64400        23.45399
     2011.58110         9.01300        22.41517
     2011.58384        10.11900        22.37392
     2011.58658         9.30100        23.24772
     2011.58932         7.10800        22.24641
     2011.59206         8.43500        22.69269
     2011.59479        18.54100        23.10146
     2011.59754        14.31400        22.65893
     2011.60027        16.61300        22.36267
     2011.60301        10.15400        22.30641
     2011.60574         5.68200        22.71144
     2011.60848        21.82100        23.83651
     2011.61122        15.98200        23.88526
     2011.61396         6.20000        22.90645
     2011.61670        14.25000        22.66268
     2011.61943         0.36500        23.21772
     2011.62217        16.36200        22.48642
     2011.62491        10.75700        22.62143
     2011.62670        15.42500        40.85134
     2011.65862        28.23500        39.62126
     2011.66050         9.21900        23.46524
     2011.66324        17.38900        22.96270
     2011.66598        18.52900        22.83895
     2011.66872        18.72500        23.19897
     2011.67145        16.62500        22.27641
     2011.67420        21.06100        22.08515
     2011.67693        15.73800        22.73019
     2011.67967        17.58900        22.39642
     2011.68240        10.13200        22.52768
     2011.68514        14.87400        22.86145
     2011.68788        11.96000        23.13897
     2011.69062        19.04400        23.25147
     2011.69336        11.78400        23.45023
     2011.69609        21.37800        22.98896
     2011.69883        24.30000        23.26272
     2011.70157         8.39300        22.18640
     2011.70431        28.99100        22.62518
     2011.70705        17.24900        23.20272
     2011.70978        18.69000        22.85020
     2011.71252        19.82000        22.38517
     2011.71526        10.14300        23.00396
     2011.71800        26.09400        22.55018
     2011.72073        24.67100        22.25766
     2011.72347        20.90900        23.16147
     2011.72621        18.82100        22.59518
     2011.72895        26.57600        22.73394
     2011.73169        13.49700        23.58149
     2011.73442        26.00400        22.54643
     2011.73716        24.13000        22.57268
     2011.73990        24.03800        22.31766
     2011.74264        19.66800        22.20516
     2011.74538        23.81000        23.40898
     2011.74811        24.53200        23.52149
     2011.75085        23.86600        22.77519
     2011.75359        21.05200        23.13522
     2011.75633        20.45600        22.89520
     2011.75906        27.71000        22.77519
     2011.76180        29.48000        22.64768
     2011.76454        28.15100        23.21397
     2011.76728        22.95300        22.50893
     2011.77002         3.20300        25.79788
     2011.77275        16.49500        26.02290
     2011.77549        22.60700        27.81926
     2011.77823        24.43000        22.56518
     2011.78097        24.79500        22.31766
     2011.78371        24.50400        22.21266
     2011.78644        23.29800        21.75888
     2011.78919        20.98900        22.10015
     2011.79192        25.36900        22.37767
     2011.79466        17.02200        22.55768
     2011.79739        24.13000        21.78138
     2011.80013        22.63000        21.93514
     2011.80287        16.72900        22.29141
     2011.80561        13.43100        22.46767
     2011.80835        25.56700        22.72644
     2011.81108        26.46500        22.17515
     2011.81382         7.86200        23.39398
     2011.81656        17.52000        21.98389
     2011.81904        13.26200        25.34035
