# ================= DQRFIT RESULTS ================
# INPUT FILE: series/OKNG.rad
# OUTPUT: LDETRENDED
# FILTER FUNCTION: f(t)
# f(t)=+line(t)+annual(t)+jumps(t)
# line(t)=+P 1+P 2*t
# annual(t)=+P 3*sin(2*pi*t+P 4)
# jumps(t)=+P 5*heav(t-2011.2032  )
# heav(t)=(t<0?0:1)
# TOTAL OBSERVATIONS MTOT= 3272
# INITIAL TIME INTERVAL= 2022.7488 - 2011.1931 = 11.5557
# TOTAL OBSERVATIONS AFTER PREFILTER M= 3261
# TIME-SPAN= 2022.7488 - 2011.1931 = 11.5557
# OBSERVATIONS: USED M=  3261 REJECTED MTOT-M=    11 %USED=   99.6638
# N=  5 PARAMETERS
# MAXSIG= 175.00000
# MAXRES=  32.74371
# SCALE FACTOR FOR LENGTHS: SCL=  10.00000
# SCALE FACTOR FOR SIGMAS: SCLSIG=   1.00000
# CHI^2=   3535.017 DOF=  3256 CHI^2/DOF=   1.08569
# RMS=      6.168 SDEV=      6.169 MEAN=   -0.04382
#  P #       PARAMETER +-    SIGMA %error PARAMETER NAME
# P 1 =      2825.67564 +-   74.131   2.62 YZERO                              
# P 2 =        -1.42055 +-    0.037   2.59 SLOPE                              
# P 3 =         4.28210 +-    0.141   3.29 ANNUAL AMPLITUDE                   
# P 4 =        -2.96414 +-    0.046   1.54 ANNUAL PHASE                       
# P 5 =        36.62656 +-    3.079   8.41 OFFSET 2011.2032                   
#       T            LDETRENDED       SIG_OBS
     2011.19307         0.46488         8.15443
     2011.19507        -1.79429         5.60890
     2011.19780        -2.55140         5.73081
     2011.20048       -11.03060         5.84335
     2011.20328        32.06038         5.73394
     2011.20602        35.77727         5.66100
     2011.20876        24.84716         5.65162
     2011.21149        21.11205         5.56827
     2011.21423        28.62694         5.52971
     2011.21697        25.95183         5.75478
     2011.21971        30.70571         5.74123
     2011.22245        29.03160         5.62974
     2011.22518        26.08549         5.52242
     2011.22792        24.83338         5.59223
     2011.23066        27.34227         5.54951
     2011.23340        23.98816         5.57139
     2011.23613        25.49705         5.51513
     2011.23887        31.55294         5.54013
     2011.24161        34.32883         5.52555
     2011.24435        31.48272         5.71414
     2011.24709        29.79261         5.65267
     2011.24982        25.78650         5.58285
     2011.25257        30.10839         5.55055
     2011.25530        33.70227         5.52555
     2011.25804        31.64616         5.68497
     2011.26078        31.02205         5.74227
     2011.26351        30.94294         5.51825
     2011.26625        18.23683         5.54638
     2011.26899        34.18572         5.53492
     2011.27173        29.52162         5.61620
     2011.27446        28.95250         5.80688
     2011.27720        26.77039         5.74123
     2011.27994        28.63128         5.59327
     2011.28268        27.75517         5.62036
     2011.28502        20.78449         6.65295
     2011.28815        18.15495         5.57660
     2011.29090        34.92484         5.53388
     2011.29369        30.06281         5.63391
     2011.29637        28.95161         5.55785
     2011.29911        29.42950         5.46094
     2011.30184        29.92839         5.68392
     2011.30441        31.03404         5.95275
     2011.30732        34.18717         5.58390
     2011.30983        38.63274         6.15177
     2013.56149        22.96533        10.90313
     2013.56331        37.43891         5.66413
     2013.56605        32.35480         5.66413
     2013.56878        38.05969         5.62349
     2013.57152        38.92958         5.59015
     2013.57426        40.85147         5.64225
     2013.57700        38.79136         5.71518
     2013.57974        29.77925         5.70060
     2013.58247        33.98214         5.74540
     2013.58521        39.18003         5.68080
     2013.58795        37.18791         5.51617
     2013.59069        44.02980         5.69434
     2013.59342        40.49569         5.69018
     2013.59616        30.77458         5.77041
     2013.59877        35.58628         5.91107
     2013.60252        35.84162        10.31442
     2013.60438        44.58625         5.71310
     2013.60711        35.97814         5.73915
     2013.60985        47.42303         6.03090
     2013.61259        42.15492         5.74748
     2013.61533        39.48581         5.94546
     2013.61807        40.35670         5.84543
     2013.62080        37.80259         5.69330
     2013.62354        40.63847         5.69747
     2013.62628        38.38836         5.59015
     2013.62902        39.51425         5.74019
     2013.63175        36.63714         5.60473
     2013.63449        43.70503         5.77353
     2013.63723        42.92191         5.74019
     2013.63997        44.52581         5.63808
     2013.64271        39.44770         5.64016
     2013.64544        38.80059         5.76207
     2013.64818        42.50048         5.59223
     2013.65092        46.86437         5.60161
     2013.65366        41.70526         5.69539
     2013.65639        42.81615         5.60890
     2013.65913        46.78503         5.88294
     2013.66187        36.29292         5.84543
     2013.66461        39.51781         5.57764
     2013.66735        46.82070         5.59640
     2013.67008        44.73959         5.66308
     2013.67282        44.52548         5.89232
     2013.67556        37.11137         5.89753
     2013.67830        50.33026         5.82146
     2013.68104        34.43215         5.93712
     2013.68377        41.73204         5.61307
     2013.68651        40.29793         5.53180
     2013.68925        40.06282         5.57556
     2013.69199        42.81771         5.67663
     2013.69472        42.21060         5.60578
     2013.69746        42.18748         5.62974
     2013.70020        44.63937         5.81938
     2013.70294        46.26626         5.61515
     2013.70568        40.40915         5.60994
     2013.70841        39.33404         5.90274
     2013.71115        42.64793         5.57869
     2013.71389        40.93882         5.67559
     2013.71663        40.48071         5.59744
     2013.71937        41.51660         5.55993
     2013.72210        46.34449         5.72560
     2013.72484        44.59838         5.60786
     2013.72758        41.31327         5.69018
     2013.73032        43.48616         5.55368
     2013.73305        46.11204         5.56201
     2013.73579        44.04593         5.58702
     2013.73853        40.77582         5.69851
     2013.74127        46.73171         5.93400
     2013.74401        47.99260         5.86002
     2013.74674        45.17049         5.73498
     2013.74948        39.59138         8.14088
     2013.75222        31.10327         5.69122
     2013.75496        31.69816         5.56201
     2013.75770        33.62305         5.86523
     2013.76043        34.50294         5.59640
     2013.76317        32.88783         5.59640
     2013.76591        44.39272         5.72144
     2013.76864        43.92860         6.38829
     2013.77138        30.82149        13.86752
     2013.77412        32.73638        11.72316
     2013.77686        36.25327         6.04236
     2013.77960        39.06016         5.73498
     2013.78182        36.83832         6.95825
     2013.78593        34.91916        10.07164
     2013.78781        29.85983         5.71727
     2013.79055        38.70272         5.70476
     2013.79329        34.54061         5.67559
     2013.79603        37.21650         5.58911
     2013.79876        36.38139         5.56931
     2013.80150        39.31128         5.69226
     2013.80424        34.56117         5.67559
     2013.80698        33.69605         5.58911
     2013.80971        38.17494         5.55055
     2013.81245        36.64783         5.56931
     2013.81519        31.24772         5.53492
     2013.81793        31.83061         5.52138
     2013.82067        35.20150         5.77458
     2013.82340        36.91039         5.60057
     2013.82569        37.52363         6.91344
     2013.82888        42.18317         5.91628
     2013.83162        33.14806         5.66204
     2013.83436        35.56095         5.72248
     2013.83709        39.99484         5.70060
     2013.83983        44.07873         5.66829
     2013.84257        37.29561         5.59223
     2013.84531        37.88650         5.68497
     2013.84804        36.16939         5.73185
     2013.85078        19.25228         5.80688
     2013.85352        38.88117         5.55993
     2013.85626        34.23006         5.63808
     2013.85900        33.60195         5.52346
     2013.86173        31.98684         5.68392
     2013.86447        28.78373         5.57869
     2013.86721        32.14862         5.61620
     2013.86995        35.22251         5.61099
     2013.87269        40.85840         5.54951
     2013.87542        45.85729         5.57973
     2013.87816        43.29817         5.66308
     2013.88090        42.58906         5.59744
     2013.88364        42.74195         5.95275
     2013.88637        39.48984         5.60578
     2013.88911        31.97673         5.56514
     2013.89185        27.16862         5.61724
     2013.89459        26.82451         5.56827
     2013.89733        33.12240         5.56931
     2013.90006        34.95929         5.64850
     2013.90280        31.98118         5.64746
     2013.90554        32.05207         5.58285
     2013.90828        33.73996         5.59536
     2013.91102        36.76885         5.54951
     2013.91375        36.41174         5.55159
     2013.91649        44.03662         5.64746
     2013.91923        41.39951         5.81938
     2013.92197        38.24940         5.64746
     2013.92470        35.95129         5.68913
     2013.92744        37.21018         5.62036
     2013.93018        35.57707         8.78377
     2013.93292        36.70796         5.57243
     2013.93566        34.19285         5.62349
     2013.93839        34.49474         5.58702
     2013.94113        35.15963         5.55576
     2013.94301        37.41530         8.96195
     2013.94661        33.29241         5.60161
     2013.94935        36.64330         5.53076
     2013.95208        34.28518         5.53284
     2013.95482        22.85807        13.14961
     2013.95756        41.89396         5.56931
     2013.96030        39.88785         5.59536
     2013.96303        38.78474         5.58285
     2013.96577        41.89763         5.55576
     2013.96851        42.91252         5.59744
     2013.97036        45.62415         8.74522
     2013.97946        36.06808         5.67142
     2013.98222        28.35899         5.71727
     2013.98494        32.04986         5.69643
     2013.98767        24.06174         5.63704
     2013.99041        26.07263         5.78187
     2013.99315        29.54952         5.77145
     2013.99589        37.01541         5.77353
     2013.99863        31.51030         5.70789
     2014.00410        34.59808         5.67663
     2014.00684        38.20897         5.78395
     2014.00958        36.47186         5.74540
     2014.01233        28.82476         5.80896
     2014.01505        33.48264         5.77353
     2014.01779        33.05253         5.88919
     2014.02053        38.04442         5.61515
     2014.02327        36.52531         5.95067
     2014.02600        41.82119         5.97463
     2014.02874        44.40208         5.78499
     2014.03148        44.88897         5.72039
     2014.03422        29.94486         5.71206
     2014.03696        34.17875         5.65475
     2014.03969        35.02064         5.72248
     2014.04244        35.71654         5.96109
     2014.04517        35.72042         5.79125
     2014.04791        36.90931         5.68392
     2014.05065        38.60820         5.69330
     2014.05338        34.75309         5.62870
     2014.05612        31.93498         5.62453
     2014.05886        34.42787         5.78187
     2014.06160        33.42375         5.62557
     2014.09266        42.35889        10.81873
     2014.09445        32.70643         5.67142
     2014.09711        30.47120         6.01319
     2014.09995        36.89924         5.93295
     2014.10266        41.23709         5.94650
     2014.10540        42.80498         5.61724
     2014.10814        38.36487         5.72456
     2014.11088        35.78076         5.74853
     2014.11362        40.49965         5.68809
     2014.11635        38.54854         5.84960
     2014.11909        37.03043         5.83814
     2014.12183        29.79632         5.73290
     2014.12457        33.50521         7.51153
     2014.12731        41.64310         5.76728
     2014.13004        42.25199         5.66204
     2014.13276        43.10385         5.85272
     2014.13552        35.95176         6.23408
     2014.13826        41.15065         6.73006
     2014.14099        39.38054         5.84751
     2014.14373        37.24243         5.74019
     2014.14647        36.34032         5.79333
     2014.14921        34.76321         5.69122
     2014.15195        31.49010         5.77979
     2014.15468        37.26499         5.81625
     2014.15742        41.89288         5.78395
     2014.16016        39.70477         6.14864
     2014.16292        37.64769         5.92358
     2014.16564        31.57855         5.78916
     2014.16837        28.71144         5.79125
     2014.17111        38.39832         5.91837
     2014.17385        36.83321         5.83084
     2014.17659        39.90210         5.85481
     2014.17932        40.36599         6.05695
     2014.18206        36.46688         5.84751
     2014.18480        38.07177         5.69643
     2014.18754        37.40066         6.60294
     2014.19028        29.87955         6.10800
     2014.19301        37.33144         5.64850
     2014.19575        36.59733         5.76624
     2014.19849        42.89822         5.78083
     2014.20123        30.94811         5.76207
     2014.20397        34.69700         5.69330
     2014.20670        40.63488         5.77458
     2014.20944        39.62077         5.74748
     2014.21218        37.83966         5.78916
     2014.21492        44.40555         5.85272
     2014.21764        34.90543         5.91837
     2014.22039        41.60633         8.74209
     2014.22313        35.52322         5.77145
     2014.22587        35.12511         5.82772
     2014.22861        39.24000         5.68601
     2014.23134        45.22689         5.74853
     2014.23408        38.94378         5.76520
     2014.23682        34.01567         5.69018
     2014.23956        34.91056         5.87148
     2014.24230        33.51544         5.73394
     2014.24501        32.56130         6.45706
     2014.24787        37.25237         6.27055
     2014.25051        37.19111         5.75478
     2014.25325        32.02000         5.73394
     2014.25598        38.54589         5.93087
     2014.25872        38.79278         5.70268
     2014.26146        36.88067         6.03298
     2014.26420        29.98356         5.72144
     2014.26694        33.93845         5.94442
     2014.26967        34.70534         5.86731
     2014.27241        37.79323         5.79646
     2014.27515        35.67412         6.64149
     2014.27789        33.79901         6.07466
     2014.27984        29.72977         9.54024
     2014.28439        40.16425        10.85937
     2014.28610        35.02067         5.83918
     2014.28884        36.40756         5.97463
     2014.29158        34.73145         5.80583
     2014.29431        39.00334         5.70997
     2014.29705        35.15923         5.78291
     2014.29979        28.59312         5.62662
     2014.30253        37.52901         5.73290
     2014.30527        36.09890         5.71727
     2014.30798        40.58376         5.93191
     2014.31074        35.91368         5.98193
     2014.31348        33.75757         5.77562
     2014.31622        35.47845         5.74332
     2014.31895        36.83534         5.77979
     2014.32169        32.42823         5.94337
     2014.32443        28.50712         5.82667
     2014.32717        28.49601         5.84751
     2014.32991        32.11390         5.66100
     2014.33264        33.29979         5.71935
     2014.33537        35.36167         5.85793
     2014.33812        36.51357         5.83397
     2014.34086        35.82046         5.79958
     2014.34360        34.37735         5.79229
     2014.34633        28.01524         5.66204
     2014.34907        34.28413         5.86210
     2014.35181        35.54601         6.08091
     2014.35455        33.58690         5.69955
     2014.35728        32.29879         5.70685
     2014.36002        28.08068         5.62245
     2014.36276        24.48457         5.86002
     2014.36550        30.32646         5.75061
     2014.36824        29.90735         5.84855
     2014.37097        39.06224         5.86731
     2014.37371        23.29313         5.76937
     2014.37645        28.94902         5.64537
     2014.37919        33.79591         5.80167
     2014.38193        27.43380         5.91524
     2014.38466        32.75469         5.87148
     2014.38740        35.14158         5.74853
     2014.39014        36.09446         5.83397
     2014.39289        31.13437         5.90899
     2014.39561        33.98224         5.82876
     2014.39835        32.73913         5.94337
     2014.40109        37.77002         5.83293
     2014.40383        31.66491         5.88086
     2014.40657        30.07180         5.85064
     2014.40930        32.34569         5.77353
     2014.41204        27.86158         5.70060
     2014.41478        29.26547         5.80896
     2014.41752        38.28636         5.79750
     2014.41915        53.18967        17.20703
     2014.43397        33.96073         5.78187
     2014.43668        31.50358         6.00485
     2014.43942        34.68047         5.84022
     2014.44216        35.77436         5.73394
     2014.44490        36.48025         5.91628
     2014.44762        36.78312         5.92670
     2014.45037        30.49703         5.65996
     2014.45311        36.85592         5.80792
     2014.45585        38.32181         5.73915
     2014.45859        27.80070         5.75582
     2014.46132        31.31658         5.74019
     2014.46406        36.48147         5.73498
     2014.46680        36.48836         5.81730
     2014.46954        36.72525         5.73811
     2014.47227        34.93614         5.77041
     2014.47501        35.77703         5.70997
     2014.47775        29.92991         5.91837
     2014.48049        40.30481         5.81209
     2014.48323        36.41670         6.00068
     2014.48596        33.03659         7.59489
     2014.48870        39.74748         5.90899
     2014.49144        35.59737         5.81521
     2014.49418        33.70826         5.63912
     2014.49692        32.99515         5.70581
     2014.49964        32.06002         5.72352
     2014.50239        37.08492         5.94963
     2014.50513        33.22281         5.77249
     2014.50787        36.41170         5.73290
     2014.51060        31.91659         5.68288
     2014.51334        38.34748         5.79125
     2014.51608        45.02737         5.72248
     2014.51882        40.88626         5.71623
     2014.52156        44.58615         5.99860
     2014.52429        38.23404         5.72664
     2014.52702        43.08591         5.74227
     2014.52977        30.21782         5.71310
     2014.53251        40.97071         5.82459
     2014.53525        32.68959         5.73602
     2014.53798        42.33248         5.72769
     2014.54072        48.17337         5.79854
     2014.54346        42.12026         5.89023
     2014.54620        43.07915         6.06945
     2014.54893        41.04304         5.83293
     2014.55167        41.15693         5.80479
     2014.55441        36.00182         5.77979
     2014.55716        36.64373         5.97984
     2014.55989        34.31560         6.10175
     2014.56262        34.22049         5.72144
     2014.56536        38.74638         5.72144
     2014.56810        35.68127         5.87460
     2014.57084        37.25015         5.77458
     2014.57357        34.54504         5.80062
     2014.57631        31.00193         5.82876
     2014.57905        33.49882         5.80583
     2014.58179        35.73571         5.74644
     2014.58454        35.93361         5.95171
     2014.58726        39.80449         6.00277
     2014.59000        38.60338         5.88815
     2014.59274        37.49427         5.81104
     2014.59548        38.88616         5.91316
     2014.59822        40.10005         5.86939
     2014.60095        42.29894         5.92983
     2014.60369        38.27083         5.73290
     2014.60643        31.28372         5.75165
     2014.60917        41.84560         5.91107
     2014.61191        38.56351         6.25909
     2014.61464        55.11138         6.01735
     2014.61738        40.66327         6.02673
     2014.62012        33.80316         5.92879
     2014.62286        37.86905         5.69018
     2014.62559        39.55794         5.85793
     2014.62833        44.25783         5.79020
     2014.63107        51.01472         5.76624
     2014.63381        46.90561         5.93608
     2014.63655        48.98450         5.89336
     2014.63928        37.10739         5.99235
     2014.64202        39.76128         5.80167
     2014.64476        37.18316         5.80062
     2014.64750        38.40905         5.63391
     2014.65023        41.40594         5.72560
     2014.65297        51.50183         5.71623
     2014.65571        50.34572         5.81730
     2014.65845        41.78161         5.73811
     2014.66119        43.43850         5.79958
     2014.66392        50.57539         5.73915
     2014.66666        51.60528         5.76311
     2014.66940        50.57117         5.75269
     2014.67214        47.34206         5.81000
     2014.67488        35.70695         5.66308
     2014.67761        39.04384         5.76624
     2014.68035        37.72672         5.80375
     2014.68309        38.38161         5.72039
     2014.68583        45.77050         5.87356
     2014.68856        44.30839         5.70581
     2014.69130        40.42028         5.82251
     2014.69402        36.08714         5.72664
     2014.69678        36.77406         5.73081
     2014.69952        41.27795         5.66100
     2014.70225        42.55184         5.73394
     2014.70499        43.23673         5.63912
     2014.70773        45.32462         5.64329
     2014.71047        45.67551         5.72248
     2014.71321        47.82840         5.71206
     2014.71594        33.09928         5.96734
     2014.71868        36.72117         5.57035
     2014.72140        44.72804         5.70893
     2014.72416        42.00995         5.69955
     2014.72689        43.80284         5.80375
     2014.72963        41.81773         5.77666
     2014.73237        46.16162         5.85689
     2014.73511        38.34051         5.70372
     2014.73785        36.24640         5.67246
     2014.74058        38.28729         5.63495
     2014.74332        39.99318         5.97046
     2014.74606        42.88007         6.00172
     2014.74879        41.55194         5.77874
     2014.75154        43.62685         5.93712
     2014.75427        40.52573         5.73185
     2014.75701        37.02262         5.93816
     2014.75975        38.09851         6.02361
     2014.76249        34.49140         5.78499
     2014.76522        45.69229         5.66829
     2014.76794        43.52115         5.82251
     2014.77002        45.00710         8.17631
     2014.79015        30.39870         6.41955
     2014.79260        37.67818         5.75999
     2014.79534        41.65607         5.65788
     2014.79808        42.72596         5.81313
     2014.80082        37.91585         5.65475
     2014.80355        47.32374         5.86002
     2014.80629        43.68563         5.86731
     2014.80903        42.14252         5.80688
     2014.81177        43.43141         5.67455
     2014.81451        44.29930         5.60578
     2014.81724        45.98119         5.75374
     2014.81998        44.31308         5.73498
     2014.82272        44.80197         5.83605
     2014.82546        44.95185         5.76832
     2014.82820        32.47374         5.62245
     2014.83091        38.94061         5.85272
     2014.83367        40.40052         5.74957
     2014.83641        43.81041         5.75269
     2014.83915        42.21730         5.75790
     2014.84188        40.66619         6.04028
     2014.84462        35.55308         5.96838
     2014.84736        36.53997         5.90690
     2014.85010        41.12086         5.81521
     2014.85284        31.12375         5.67246
     2014.85557        38.91464         5.80583
     2014.85831        45.72353         5.92358
     2014.86105        34.28542         5.75686
     2014.86379        29.22030         5.66413
     2014.86653        32.81819         5.70372
     2014.86926        34.68708         5.69539
     2014.87200        33.81897         5.70997
     2014.87474        31.09786         5.66621
     2014.87748        32.39375         5.77145
     2014.88021        35.14964         5.75999
     2014.88295        40.89053         5.86939
     2014.88569        37.88742         5.99756
     2014.88843        40.30531         6.10696
     2014.89117        46.23320         6.42685
     2014.89390        39.45609         6.44664
     2014.89664        39.34798         5.99964
     2014.89938        35.56986         5.91732
     2014.90212        27.11275         5.88607
     2014.90485        27.14864         5.82042
     2014.90759        28.26653         6.12468
     2014.91033        41.05842         5.79229
     2014.91307        41.54031         5.70581
     2014.91581        39.17320         5.66204
     2014.91854        39.52409         5.64537
     2014.92126        33.31995         5.74123
     2014.92402        36.72387         5.75374
     2014.92676        38.65776         5.67350
     2014.92950        28.47165         5.74227
     2014.93208        31.29831         6.27055
     2014.93503        30.71051         8.34823
     2014.93771        34.98131         5.72560
     2014.94045        37.71120         5.83814
     2014.94318        34.37609         5.96942
     2014.94592        35.55698         5.67871
     2014.94866        25.87987         5.71414
     2014.95140        28.40876         5.58911
     2014.95414        30.12665         5.59952
     2014.95687        37.92254         5.72352
     2014.95961        24.58543         5.65788
     2014.96235        22.55032         5.73915
     2014.96509        31.61121         5.88502
     2014.96781        25.71407         5.83397
     2014.97056        37.68299         5.68392
     2014.97330        34.44087         5.69747
     2014.97604        30.28776         5.64120
     2014.97878        34.77265         5.67767
     2014.98151        43.24354         6.04549
     2014.98425        32.28743         5.87669
     2014.98699        34.42032         5.64120
     2014.98973        30.63421         5.58598
     2014.99247        27.42310         5.64537
     2014.99520        22.21699         5.72039
     2014.99794        34.60288         5.54951
     2015.00068        31.32177         5.55368
     2015.00342        32.31466         5.61828
     2015.00616        25.32955         5.63287
     2015.00889        29.76443         5.78395
     2015.01163        20.14132         5.89961
     2015.01437        30.97821         5.92045
     2015.01711        28.59210         5.86002
     2015.01984        34.28399         5.58077
     2015.02258        35.08588         5.77145
     2015.02532        40.06777         5.72144
     2015.02806        34.77266         5.71310
     2015.03080        36.61755         5.63704
     2015.03354        32.06244         5.79541
     2015.03627        33.35033         5.57035
     2015.03901        35.31822         5.79229
     2015.04175        41.19811         5.81209
     2015.04449        31.86199         5.64433
     2015.04722        38.95188         5.65892
     2015.04996        38.31077         5.61307
     2015.05270        33.73366         5.73811
     2015.05544        29.22355         5.69434
     2015.05817        35.45244         5.68392
     2015.06091        31.84233         5.80062
     2015.06365        40.16222         5.89544
     2015.06637        39.70508         5.73081
     2015.06913        37.08100         5.60890
     2015.07186        29.87389         5.67246
     2015.07460        33.54178         5.64850
     2015.07734        32.09367         5.59744
     2015.08008        29.07356         5.60057
     2015.08282        33.91744         5.69018
     2015.08555        27.17033         5.68497
     2015.08829        34.91522         5.62662
     2015.09103        42.96911         5.58494
     2015.09376        35.49199         5.72664
     2015.09650        39.38189         5.84022
     2015.09924        48.04478         5.83293
     2015.10198        41.81367         6.06216
     2015.10474        35.60759         5.76416
     2015.10746        37.35945         5.66204
     2015.11019        31.99634         5.94754
     2015.11293        31.88623         6.29139
     2015.11567        39.09412         5.62036
     2015.11841        30.71000         5.61515
     2015.12115        29.83589         5.70164
     2015.12388        30.05278         5.60682
     2015.12662        31.31767         5.69955
     2015.12936        35.81456         5.67767
     2015.13210        29.37445         5.68392
     2015.13483        29.86534         5.74227
     2015.13757        35.65423         5.65683
     2015.14031        26.70512         5.73081
     2015.14305        33.38401         5.56827
     2015.14579        33.86590         5.61411
     2015.14852        37.21979         5.69643
     2015.15126        33.59368         5.60578
     2015.15400        34.60456         5.61620
     2015.15674        40.78845         5.59952
     2015.15948        45.45434         5.79437
     2015.16221        35.02623         5.59536
     2015.16495        38.91312         5.64641
     2015.16769        33.79401         5.57035
     2015.17043        33.41090         5.66934
     2015.17316        32.88979         5.88398
     2015.17590        34.83968         5.83605
     2015.17864        36.21257         5.63183
     2015.18138        40.22846         5.65579
     2015.18412        35.83835         5.63495
     2015.18685        38.17724         5.74644
     2015.18959        38.39613         5.81625
     2015.19233        39.72501         5.92462
     2015.19507        36.11690         5.57243
     2015.19780        38.55179         5.67246
     2015.20054        41.01368         6.37892
     2015.20328        31.14957         5.57243
     2015.20602        29.58546         5.97880
     2015.20876        30.85735         5.60057
     2015.21149        30.47224         5.59952
     2015.21422        27.42811         5.90274
     2015.21697        38.88302         5.63599
     2015.21971        33.89291         5.64641
     2015.22245        27.47780         5.62141
     2015.22518        34.48469         5.63704
     2015.22792        37.70957         5.60890
     2015.23066        34.73046         5.57556
     2015.23340        33.25435         5.78187
     2015.23613        42.35024         5.85064
     2015.23887        35.24413         5.95588
     2015.24160        44.10501         6.22054
     2015.24435        40.45191         5.95067
     2015.24709        38.37580         5.74540
     2015.24982        35.30369         5.55889
     2015.25256        34.87758         5.60057
     2015.25530        38.33547         5.62141
     2015.25804        34.49836         5.68184
     2015.26078        41.75525         5.54951
     2015.26351        40.45913         5.61515
     2015.26625        35.62502         5.67246
     2015.26898        36.86091         5.71831
     2015.27173        42.72180         5.76832
     2015.27446        46.66869         5.89128
     2015.27720        43.66158         5.71831
     2015.27994        35.74747         5.63391
     2015.28268        39.49636         5.68184
     2015.28542        38.47125         5.99339
     2015.28815        31.24914         5.90795
     2015.29089        40.59503         5.68809
     2015.29362        38.63891         5.74644
     2015.29637        33.67281         5.59952
     2015.29911        40.12669         5.64016
     2015.30184        41.91658         5.74123
     2015.30458        41.20647         5.61828
     2015.30732        40.52636         5.51721
     2015.31006        36.95825         5.57035
     2015.31279        34.68314         5.47553
     2015.31553        29.94603         5.59119
     2015.31827        32.25492         5.57660
     2015.32101        36.10481         5.62453
     2015.32375        34.99570         5.57869
     2015.32648        31.96359         5.64433
     2015.32920        30.41444         5.74436
     2015.33196        37.32437         5.56722
     2015.33470        36.76726         5.54951
     2015.33744        37.99914         5.52450
     2015.34017        33.30603         5.73811
     2015.34289        28.39990         5.53701
     2015.34566        34.14883         5.52867
     2015.34839        38.20670         5.57973
     2015.35112        32.30059         5.43802
     2015.35386        40.84948         5.49533
     2015.35660        31.71437         5.52346
     2015.35934        32.75326         6.80091
     2015.36208        33.89215         5.61411
     2015.36481        32.50604         5.47345
     2015.36755        32.61193         5.63912
     2015.37029        40.26382         5.59327
     2015.37303        31.39070         5.56618
     2015.37577        34.56359         5.59640
     2015.37850        27.81848         5.66725
     2015.38124        37.39837         5.50679
     2015.38398        34.32526         5.64225
     2015.38672        37.78315         5.57660
     2015.38945        32.61304         5.51929
     2015.39219        36.25293         5.59432
     2015.39493        37.38482         5.63391
     2015.39767        31.40871         5.73290
     2015.40041        29.35660         5.73498
     2015.40317        33.26852         5.73290
     2015.40588        31.65338         5.67767
     2015.40862        34.78726         5.65267
     2015.41136        41.39715         5.59640
     2015.41410        35.07504         5.64954
     2015.41683        33.23393         5.71518
     2015.41957        35.17782         5.45365
     2015.42231        35.66171         5.63599
     2015.42505        30.31560         5.79229
     2015.42778        37.32049         5.59744
     2015.43052        40.42238         5.57556
     2015.43326        36.97527         5.51513
     2015.43600        40.69416         5.60265
     2015.43874        44.38605         5.67350
     2015.44147        41.75194         5.78708
     2015.44421        39.87983         5.72352
     2015.44695        37.93571         5.52138
     2015.44969        36.75360         5.56306
     2015.45243        33.52849         5.65892
     2015.45516        41.33738         5.64225
     2015.45790        36.45627         5.82772
     2015.46064        39.97416         5.78812
     2015.46338        42.71006         5.74227
     2015.46611        36.18894         5.76624
     2015.46885        43.50383         5.60994
     2015.47159        37.49972         5.62662
     2015.47433        37.23561         5.79125
     2015.47707        41.60150         5.74227
     2015.47980        41.88739         5.60473
     2015.48254        41.56127         5.97672
     2015.48528        36.34616         5.56722
     2015.48802        40.45405         5.55785
     2015.49076        42.47594         5.98193
     2015.49348        37.89782         5.99547
     2015.49624        39.66673         6.16740
     2015.49897        38.55161         5.67663
     2015.50171        40.39650         5.58806
     2015.50444        40.00139         5.58911
     2015.50718        43.75128         5.62662
     2015.50992        41.03717         5.55680
     2015.51266        43.93106         5.52450
     2015.51540        37.17295         5.54326
     2015.51813        45.07283         5.79437
     2015.52087        45.44972         5.63495
     2015.52361        37.16961         5.84022
     2015.52635        46.12950         5.61724
     2015.52907        45.02836         5.75999
     2015.53182        42.61328         5.64537
     2015.53456        44.84117         5.65683
     2015.53730        43.66506         5.69434
     2015.54004        45.24695         5.73185
     2015.54277        43.28784         5.85793
     2015.54551        45.83573         5.65892
     2015.54825        39.07262         5.86210
     2015.55099        53.05351         5.84126
     2015.55373        50.11140         5.94129
     2015.55646        49.04028         5.97880
     2015.55920        45.41217         5.61307
     2015.56194        50.06106         5.64641
     2015.56468        45.19795         5.72560
     2015.56741        43.85984         5.88502
     2015.57015        43.13573         5.99860
     2015.57289        38.65462         5.99860
     2015.57563        40.95851         5.83293
     2015.57837        45.60340         5.86627
     2015.58110        48.24129         5.89649
     2015.58384        43.40518         5.92566
     2015.58658        49.05407         6.04028
     2015.58932        48.65996         5.92879
     2015.59206        43.42084         5.97672
     2015.59479        47.44473         5.87044
     2015.59753        45.69362         5.92774
     2015.60025        48.58149         6.09029
     2015.60301        48.89940         6.04861
     2015.60574        38.99429         6.04965
     2015.60848        49.57118         6.13718
     2015.61122        46.22407         5.84335
     2015.61396        45.68696         5.87252
     2015.61670        48.53085         5.93191
     2015.61943        39.70874         5.81417
     2015.62217        51.74363         5.77458
     2015.62491        55.71752         5.79854
     2015.62765        52.20740         5.79125
     2015.63039        47.67229         5.91941
     2015.63312        48.17818         6.02256
     2015.63586        41.18707         5.93295
     2015.63860        46.41496         5.72039
     2015.64134        45.24985         5.80167
     2015.64407        47.52474         5.79020
     2015.64681        42.59363         5.80271
     2015.64955        46.51352         5.75790
     2015.65229        49.22241         5.75895
     2015.65503        52.57130         5.66621
     2015.65776        48.36719         5.82251
     2015.66050        51.91008         5.80167
     2015.66324        52.64797         5.73811
     2015.66598        49.70885         5.88815
     2015.66872        45.09374         6.06945
     2015.67143        42.36461         5.92149
     2015.67419        42.86952         5.69330
     2015.67693        45.45341         5.66100
     2015.67967        43.19230         5.71623
     2015.68240        43.10719         5.73290
     2015.68514        35.08508         5.84647
     2015.68788        36.47897         5.84543
     2015.69062        44.16386         6.02048
     2015.69336        44.52975         5.85481
     2015.69609        44.64264         5.81834
     2015.69883        46.79853         5.90274
     2015.70157        49.58841         5.90274
     2015.70431        47.82730         5.72664
     2015.70707        48.54723         5.78708
     2015.70978        50.65808         5.70164
     2015.71252        40.70997         5.73602
     2015.71526        46.04286         5.76311
     2015.71800        48.41975         5.77874
     2015.72073        55.68764         6.01110
     2015.72347        47.09853         5.64016
     2015.72621        42.53642         5.74123
     2015.72895        39.71731         5.77770
     2015.73169        43.42520         5.76311
     2015.73442        42.61009         5.67663
     2015.73702        40.22778         6.08300
     2015.73992        47.02890         5.99651
     2015.74265        41.94877         5.95900
     2015.74538        47.21464         6.03819
     2015.74811        43.65653         6.03611
     2015.75085        33.66342         5.69122
     2015.75359        37.43631         5.67663
     2015.75633        45.06120         5.85376
     2015.75906        44.90009         5.84230
     2015.76180        43.68198         5.87460
     2015.76454        42.41487         5.67455
     2015.76728        41.65076         5.75374
     2015.77002        41.13165         5.83293
     2015.77275        47.22454         5.74644
     2015.77549        49.10042         5.96109
     2015.77823        47.86731         5.81938
     2015.78099        49.32124         5.90170
     2015.78371        45.56909         5.73498
     2015.78644        41.83698         5.85897
     2015.78918        42.42787         5.70372
     2015.79192        43.17476         5.72560
     2015.79466        50.20865         5.74540
     2015.79739        47.12854         5.70372
     2015.80013        41.77943         5.98297
     2015.80287        38.33732         5.69851
     2015.80560        43.01620         5.69018
     2015.80835        41.03410         5.77145
     2015.81108        37.32298         5.69539
     2015.81382        46.28887         5.87773
     2015.81656        42.16876         5.95171
     2015.81930        40.08765         5.69122
     2015.82203        43.89154         5.78708
     2015.82477        45.74143         5.83188
     2015.82751        44.70932         5.76520
     2015.83025        49.72421         5.77562
     2015.83299        37.79510         5.73602
     2015.83573        43.07899         5.68705
     2015.83846        38.10888         5.82876
     2015.84120        38.62777         5.99130
     2015.84394        41.56366         5.77979
     2015.84668        35.47254         5.88711
     2015.84941        41.25343         5.91628
     2015.85215        48.19332         5.80896
     2015.85489        46.08221         5.92983
     2015.85763        44.53410         5.83709
     2015.86036        44.99399         6.17261
     2015.86310        40.59088         5.87565
     2015.86584        49.64477         5.90690
     2015.86858        45.70466         5.81730
     2015.87132        47.99155         5.94337
     2015.87405        42.05544         6.01214
     2015.87679        37.62433         5.85585
     2015.87953        37.12322         6.19240
     2015.88227        44.00710         6.11842
     2015.88501        36.34699         7.45318
     2015.88774        35.60388         5.81313
     2015.89048        39.68677         5.82146
     2015.89322        41.73466         5.74853
     2015.89596        33.46655         5.84126
     2015.89872        50.38647         5.94337
     2015.90143        34.95933         5.89753
     2015.90417        33.08822         5.74540
     2015.90691        35.59211         5.97255
     2015.90965        36.83600         6.20908
     2015.91238        39.38389         5.76311
     2015.91509        36.64573         5.92253
     2015.91786        32.40267         5.86731
     2015.92060        25.63455         5.99339
     2015.92334        41.83444         5.93400
     2015.92609        33.54735         5.91316
     2015.92881        31.47522         5.99235
     2015.93155        41.90411         6.53000
     2015.93429        43.91500         6.12468
     2015.93702        39.58089         6.15177
     2015.93976        44.14778         6.07675
     2015.94250        41.86167         6.02881
     2015.94524        33.88356         5.98505
     2015.94798        40.48645         5.86418
     2015.95071        40.48434         5.86731
     2015.95348        38.80727         5.82355
     2015.95619        39.62611         5.81104
     2015.95893        36.36600         6.03715
     2015.96167        35.44989         6.03819
     2015.96440        28.25678         5.84126
     2015.96714        45.43567         5.88919
     2015.96988        44.33056         5.77353
     2015.97262        39.29145         5.84439
     2015.97535        33.64834         5.87773
     2015.97809        31.40523         5.87044
     2015.98081        23.13708         5.99130
     2015.98357        29.78101         6.26326
     2015.98630        23.91489         6.34557
     2015.98904        26.37179         5.86835
     2015.99178        34.01267         5.77249
     2015.99452        36.38356         5.70893
     2015.99726        37.65645         5.86418
     2016.00000        35.58934         5.71831
     2016.00273        34.05523         6.02777
     2016.00547        34.87712         5.87148
     2016.00821        37.04301         5.87148
     2016.01095        35.95390         5.86002
     2016.01368        21.18979         5.76416
     2016.01643        31.96369         6.02777
     2016.01916        32.79257         6.22262
     2016.02190        34.68746         5.95275
     2016.02464        38.43535         5.73394
     2016.02744        33.47632         5.91941
     2016.03011        37.53212         5.74853
     2016.03285        24.08001         5.75165
     2016.03559        31.93590         5.76937
     2016.03833        31.70379         5.89232
     2016.04106        31.38368         5.76207
     2016.04378        25.66854         6.86551
     2016.04654        22.65846         5.81209
     2016.04928        25.77335         5.74957
     2016.05201        35.16424         5.81104
     2016.05475        29.00113         5.69747
     2016.05749        38.14402         5.81625
     2016.06023        29.71591         5.75374
     2016.06297        37.56180         5.69330
     2016.06570        33.33168         5.83293
     2016.06844        33.89457         5.86731
     2016.07118        24.64046         6.43831
     2016.07393        34.61337         6.28097
     2016.07666        33.21024         5.82772
     2016.07939        44.09613         5.70893
     2016.08213        38.48802         5.96421
     2016.08487        39.06391         5.64954
     2016.08761        31.38580         5.80167
     2016.09034        28.83669         6.90094
     2016.09308        21.68858         6.09446
     2016.09582        27.30347         5.77562
     2016.09856        30.76936         5.70164
     2016.10061        22.81627         8.35969
     2016.10403        21.42013         5.66517
     2016.10677        25.66902         5.64641
     2016.10951        28.91491         5.72873
     2016.11225        24.88480         6.53521
     2016.11498        27.09169         5.72769
     2016.11772        28.88658         5.67559
     2016.12046        35.78847         6.16948
     2016.12320        28.87036         5.82459
     2016.12594        25.11725         5.71935
     2016.12866        37.31512         5.71518
     2016.13141        42.99203         5.63183
     2016.13415        39.84492         5.67350
     2016.13689        30.43481         6.19136
     2016.13957        30.87761         5.81834
     2016.14239        23.37162         5.80896
     2016.14510        26.49647         5.75165
     2016.14784        26.34136         5.71935
     2016.15058        29.18125         5.60161
     2016.15331        33.70814         5.79020
     2016.15605        32.95203         5.63704
     2016.15881        26.33795         5.85585
     2016.16153        30.85981         5.78916
     2016.16427        29.03470         5.60890
     2016.16700        27.52159         5.75686
     2016.16974        24.65248         5.71206
     2016.17248        30.69937         5.73915
     2016.17522        31.63825         5.69539
     2016.17796        34.60514         5.78083
     2016.18069        39.02103         5.81104
     2016.18343        27.47592         6.51646
     2016.18617        31.51181         6.73110
     2016.18891        31.06770         5.72144
     2016.19164        36.14459         5.71310
     2016.19364        37.53043         8.60664
     2016.19712        33.11837         5.61411
     2016.19964        36.55895         6.50291
     2016.20260        28.75315         6.08300
     2016.20533        30.68404         6.16010
     2016.20807        34.62793         5.81000
     2016.21081        27.57581         5.78812
     2016.21355        28.27970         5.67976
     2016.21503        22.62681        21.55932
     2016.21771         2.65862        86.60300
     2016.22176        38.34237         5.54743
     2016.22450        31.19726         5.64120
     2016.22722        27.42612         6.01735
     2016.22997        30.61204         5.62036
     2016.23271        32.75693         5.49741
     2016.23545        35.59582         5.52450
     2016.23819        38.02071         5.69226
     2016.24093        45.65860         5.76103
     2016.24366        35.09849         5.61828
     2016.24640        32.74538         5.58494
     2016.24914        36.26626         5.49637
     2016.25188        37.33715         6.32786
     2016.25460        35.45502         5.89649
     2016.25735        34.43693         5.59223
     2016.26009        29.90282         5.80062
     2016.26283        28.43471         5.68601
     2016.26557        29.74060         5.62662
     2016.26830        31.06549         5.59432
     2016.27104        31.87438         5.82459
     2016.27378        40.18027         5.61099
     2016.27652        35.09816         5.52138
     2016.27926        39.08205         5.61724
     2016.28126        33.96589         9.04843
     2016.28473        34.43682         5.69434
     2016.28668        24.77959         8.67332
     2016.29021        30.08960         5.69539
     2016.29295        29.93449         5.59015
     2016.29568        28.60638         5.54951
     2016.29842        33.10927         5.72560
     2016.30116        34.19316         5.77353
     2016.30389        27.24804         5.58702
     2016.30663        41.50094         5.66934
     2016.30937        34.34583         5.55993
     2016.31142        32.19874         8.16589
     2016.31394        29.26431        10.42695
     2016.31759        37.43450         5.64433
     2016.32032        35.77438         5.61515
     2016.32306        29.33627         5.53805
     2016.32580        32.60416         5.61515
     2016.32854        30.88905         5.67350
     2016.33128        30.17094         5.61307
     2016.33401        34.51983         5.66829
     2016.33675        33.50072         5.71518
     2016.33949        38.05761         5.62557
     2016.34225        34.96153         5.74853
     2016.34496        37.63839         5.79437
     2016.34770        35.37828         5.72248
     2016.35044        30.00517         6.17156
     2016.35318        42.35806         5.65996
     2016.35592        25.73295         5.57139
     2016.35865        29.41383         5.54638
     2016.36025        37.90710        16.17131
     2016.36413        39.63662         5.77041
     2016.36687        37.42150         5.58285
     2016.36961        45.93639         5.61515
     2016.37234        48.71628         5.60057
     2016.37508        41.03117         5.69226
     2016.37782        31.39406         5.63495
     2016.37979        43.90286         8.91714
     2016.39513        27.98264         9.33497
     2016.39698        42.74328         5.57556
     2016.39973        45.12219         5.65371
     2016.40160        44.12685         9.99558
     2016.40520        35.89595         5.50366
     2016.40794        30.85584         5.59119
     2016.41067        29.10673         5.62453
     2016.41341        31.69162         5.51721
     2016.41615        29.60451         5.62974
     2016.41889        33.48140         5.69018
     2016.42162        34.79129         5.74853
     2016.42436        33.89218         5.57660
     2016.42710        38.41607         5.62453
     2016.42984        31.64995         5.75686
     2016.43258        34.65584         5.59432
     2016.43531        42.10373         5.73394
     2016.43805        38.93962         5.62245
     2016.44079        45.19251         5.70893
     2016.44355        39.63343         5.77353
     2016.44626        28.95029         5.56097
     2016.44900        33.48218         5.62141
     2016.45174        41.35107         5.68497
     2016.45448        40.24096         5.54013
     2016.45722        36.61485         5.60786
     2016.45997        42.38276         5.65058
     2016.46173        40.61226        10.13833
     2016.46543        31.86651         5.63599
     2016.46817        36.57840         5.56306
     2016.47091        36.48429         5.65788
     2016.47364        37.69418         5.72977
     2016.47638        46.36407         5.72248
     2016.47912        36.12196         5.75582
     2016.48161        33.70150         6.08300
     2016.48460        32.95575         5.57452
     2016.48733        31.55263         5.59744
     2016.49007        38.86852         5.70164
     2016.49281        34.04241         5.62557
     2016.49555        40.01630         5.81938
     2016.49828        35.79919         5.59952
     2016.50102        41.62408         5.72873
     2016.50376        44.04996         5.94754
     2016.50650        46.78485         5.82563
     2016.50924        37.23874         5.55785
     2016.51197        37.69163         5.64016
     2016.51471        38.87452         5.58806
     2016.51744        45.28440         5.74123
     2016.52019        36.42230         5.86731
     2016.52292        41.08019         5.53805
     2016.52566        40.71308         5.52555
     2016.52749        31.36167         9.02134
     2016.53114        37.73786         5.59223
     2016.53388        37.94775         5.72769
     2016.53661        41.16464         5.85585
     2016.53935        38.86752         5.50262
     2016.54209        38.91841         5.52346
     2016.54483        44.64430         5.68601
     2016.54758        35.94021         5.67350
     2016.55002        39.25768         6.32161
     2016.55304        34.00897         5.54847
     2016.55578        40.79586         5.76937
     2016.55852        38.81875         5.52971
     2016.56125        41.10164         5.64537
     2016.56274        37.44075        20.63718
     2016.56673        49.23742         5.90170
     2016.56947        36.32531         5.98505
     2016.57221        41.93320         5.66308
     2016.57494        38.45808         5.93608
     2016.57768        43.62597         5.72248
     2016.58042        32.62486         5.64433
     2016.58316        40.45575         5.53180
     2016.58590        41.69564         5.64954
     2016.58863        40.79653         5.58285
     2016.59137        39.46842         5.72039
     2016.59411        46.15731         5.60265
     2016.59685        49.88820         5.55055
     2016.59958        41.56509         5.70060
     2016.60232        40.93097         5.70476
     2016.60506        39.07687         5.58598
     2016.60780        42.29676         5.52555
     2016.61054        41.04565         5.66829
     2016.61327        36.89253         5.57973
     2016.61601        35.35042         5.54951
     2016.61875        33.75331         5.64954
     2016.62149        40.81820         5.59327
     2016.62423        45.84909         5.68392
     2016.62696        40.50198         5.54117
     2016.62970        40.49187         5.71102
     2016.63244        39.53776         5.83397
     2016.63518        37.99465         5.48282
     2016.63791        48.23854         5.59848
     2016.64042        45.09610         6.30806
     2016.64339        35.90032         5.54013
     2016.64613        41.23121         5.55264
     2016.64887        38.17209         5.60265
     2016.65185        40.23133         6.12468
     2016.65434        33.80487         5.74332
     2016.65708        39.45976         5.67142
     2016.65980        39.67963         5.76728
     2016.66256        39.74254         5.56618
     2016.66529        43.10743         5.53909
     2016.66803        47.63932         5.73290
     2016.66986        49.79591         9.76322
     2016.67351        44.12610         5.55472
     2016.67624        47.94299         5.46303
     2016.67898        44.95888         5.50679
     2016.68172        48.04677         5.55055
     2016.68446        44.50665         5.83293
     2016.68720        37.84754         5.91211
     2016.68992        45.35541         5.68913
     2016.69267        41.77432         5.62245
     2016.69541        44.89121         5.79541
     2016.69815        45.32010         5.60890
     2016.70089        46.42399         5.52346
     2016.70362        44.02388         5.66413
     2016.70636        40.71177         5.80375
     2016.70910        45.76566         5.88919
     2016.71184        50.98755         5.67871
     2016.71457        38.98544         5.60161
     2016.71731        52.02733         5.57139
     2016.72007        43.25524         5.61620
     2016.72279        49.18810         5.52346
     2016.72553        47.71699         5.74540
     2016.72826        46.92288         5.65162
     2016.73100        38.65377         5.49845
     2016.73374        45.59666         5.51096
     2016.73648        43.30355         5.42031
     2016.73921        37.97144         5.75165
     2016.74195        42.68433         5.61099
     2016.74469        39.56922         5.53805
     2016.74743        42.58011         5.66621
     2016.75017        47.99500         5.64329
     2016.75290        45.97889         5.52763
     2016.75564        47.77878         5.50992
     2016.75838        51.89466         5.52034
     2016.76112        49.28455         5.48595
     2016.76386        44.53744         5.51721
     2016.76659        43.22233         5.61724
     2016.76933        45.01122         5.55472
     2016.77207        46.15311         5.59223
     2016.77481        47.03900         5.57348
     2016.77757        39.91692         5.55680
     2016.78028        43.02178         5.52763
     2016.78302        40.13067         5.51721
     2016.78576        47.58756         5.55889
     2016.78850        46.42145         5.61203
     2016.79123        50.56134         5.56201
     2016.79397        51.83322         5.56306
     2016.79671        36.49111         5.52346
     2016.79945        31.65200         5.49220
     2016.80093        27.92211        22.14699
     2016.80491        36.60476         5.62557
     2016.80766        39.38567         5.55264
     2016.81040        36.15156         5.53805
     2016.81314        38.15145         5.52867
     2016.81587        39.15834         5.54847
     2016.81861        35.74523         5.66413
     2016.82135        39.92512         5.64225
     2016.82409        41.24101         5.53805
     2016.82683        32.72390         5.52034
     2016.82956        39.89879         5.45365
     2016.83230        45.93167         5.60473
     2016.83504        40.18457         5.65892
     2016.83778        44.57845         5.59432
     2016.84017        34.78186         6.54355
     2016.84325        30.83623         5.47241
     2016.84599        32.48312         5.59015
     2016.84873        46.58201         5.82563
     2016.85112        39.93541         6.71755
     2016.85420        34.46179         5.54430
     2016.85563        57.68781        72.24575
     2016.85968        32.42957         5.72664
     2016.86242        34.88146         5.57348
     2016.86516        39.24035         5.61411
     2016.86791        37.87826         5.61828
     2016.87063        45.20612         5.59640
     2016.87337        45.73501         5.67246
     2016.87611        42.13890         5.48282
     2016.87885        36.38779         5.54222
     2016.88158        30.59168         5.56201
     2016.88432        39.47857         5.53909
     2016.88706        41.31446         5.59848
     2016.88979        42.65234         5.54013
     2016.89253        40.28424         5.57660
     2016.89527        40.69413         5.64433
     2016.89801        36.90302         5.62870
     2016.90075        41.80191         5.55264
     2016.90349        42.46179         5.78187
     2016.90622        44.88168         5.69018
     2016.90851        40.84793         6.95721
     2016.91170        38.50146         5.49741
     2016.91444        38.19735         5.52138
     2016.91718        34.94324         5.70060
     2016.91991        26.65513         5.68288
     2016.92265        32.29702         5.61724
     2016.92537        41.14988         5.69018
     2016.92813        33.46180         5.54013
     2016.93086        32.36169         5.54117
     2016.93360        34.21058         5.59119
     2016.93634        33.90947         5.55472
     2016.93908        31.13335         5.65788
     2016.94182        33.23724         5.61307
     2016.94455        24.67913         5.74540
     2016.94729        30.04602         5.69955
     2016.95003        32.04391         6.65712
     2016.95368        42.03510         8.89005
     2016.95551        36.51569         5.68184
     2016.95825        41.14359         5.63391
     2016.96098        38.21347         5.59848
     2016.96372        28.61636         5.74436
     2016.96646        39.15825         5.63912
     2016.96874        34.59049         7.09996
     2016.97142        26.72230         7.36253
     2016.97467        40.62592         5.66725
     2016.97741        35.36080         5.54743
     2016.98015        22.56969         5.58702
     2016.98288        22.50058         5.60265
     2016.98562        29.05647         5.54951
     2016.98836        30.59436         5.65996
     2016.99110        33.95225         5.47553
     2016.99301        25.11397         9.73717
     2016.99656        42.10401         5.67976
     2016.99931        38.44192         5.62141
     2017.00074         9.98394       122.90614
     2017.00479        32.14170         5.45157
     2017.00752        30.70559         5.46824
     2017.01300        42.89236         5.90065
     2017.01574        33.23825         5.54013
     2017.01848        34.86314         5.47866
     2017.02121        33.67703         5.53180
     2017.02395        26.49392         5.48491
     2017.02669        29.77881         5.53805
     2017.02943        39.32871         5.58911
     2017.03216        33.23259         5.50679
     2017.03490        30.32948         5.45573
     2017.03764        25.62537         5.57764
     2017.04038        32.13826         5.44531
     2017.04277        30.47366         6.51229
     2017.04585        39.86204         5.74540
     2017.04859        28.46092         5.77458
     2017.05133        15.86581         5.66204
     2017.05407        45.62570         5.42343
     2017.05681        42.38859         5.45990
     2017.05952        31.90045         5.59223
     2017.06228        33.53237         5.45782
     2017.06502        33.57526         5.49533
     2017.06776        33.36115         5.54951
     2017.07049        35.93504         5.49533
     2017.07323        27.18393         5.43802
     2017.07597        25.84782         5.52242
     2017.07762        23.03217        12.80159
     2017.08145        33.26560         5.48282
     2017.08418        30.49049         5.55055
     2017.08692        29.44237         5.51513
     2017.08966        34.16026         5.52659
     2017.09242        29.17819         5.64016
     2017.09514        25.66604         5.64537
     2017.09787        21.43393         5.51304
     2017.10061        22.37182         5.58077
     2017.10335        23.00171         5.61620
     2017.10609        30.37160         5.57139
     2017.10763        31.90479        15.88164
     2017.11156        25.35638         8.03356
     2017.11430        28.69927         5.49012
     2017.11704        23.00516         5.53597
     2017.11978        24.73605         5.52346
     2017.12251        25.33793         5.56931
     2017.12527        24.25085         5.55368
     2017.12799        38.56971         5.50471
     2017.13073        36.63160         5.46199
     2017.13347        41.03949         5.51721
     2017.13620        40.77538         5.47761
     2017.13894        34.50427         5.54534
     2017.14168        30.12016         5.47866
     2017.14442        30.19805         5.59015
     2017.14664        29.40621         7.11975
     2017.14989        32.90083         5.50575
     2017.15263        35.26072         5.54013
     2017.15537        37.13161         5.50679
     2017.15719        32.65720        10.58533
     2017.16073        37.44322         5.85689
     2017.16358        32.12927         5.54326
     2017.16632        31.69216         5.44948
     2017.16906        30.86905         5.58077
     2017.17180        31.32794         5.48178
     2017.17453        36.73883         5.58806
     2017.17727        36.90472         5.54534
     2017.18001        33.71761         5.47970
     2017.18275        30.18750         5.52867
     2017.18548        28.57039         5.50471
     2017.18822        24.75828         5.59744
     2017.19091        26.51010         5.67246
     2017.19370        25.69406         5.57035
     2017.19626        32.08769         5.87252
     2017.19917        32.25683         5.49950
     2017.20191        30.86872         5.51408
     2017.20465        30.52761         5.70268
     2017.20739        24.33450        10.56241
     2017.21013        37.81639         5.65579
     2017.21286        33.59628         5.47970
     2017.21560        29.90717         5.54743
     2017.21834        30.14306         5.58598
     2017.22106        37.89092         5.57764
     2017.22381        30.09084         5.65267
     2017.22655        32.13873         5.65162
     2017.22929        29.88962         5.49220
     2017.23203        30.73350         5.46928
     2017.23380        26.63102        11.53977
     2017.23750        28.89728         5.56827
     2017.23965        22.82433         7.40734
     2017.24298        25.93106         5.50158
     2017.24572        27.01295         5.52450
     2017.24846        24.42584         5.48803
     2017.25108        28.46457         5.82459
     2017.25393        28.31562         5.62766
     2017.25667        27.19851         5.54534
     2017.25941        26.00640         5.53701
     2017.26214        27.50629         5.51825
     2017.26488        41.05718         5.65892
     2017.26762        37.95706         5.50992
     2017.27036        30.70295         5.57035
     2017.27310        18.52884         5.68705
     2017.27583        23.75473         5.57556
     2017.27783        20.31557         8.36282
     2017.28131        23.90851         5.52138
     2017.28405        25.85040         5.54326
     2017.28570        16.00975        14.45832
     2017.28952        26.44918         5.53076
     2017.29226        29.84707         5.47241
     2017.29500        23.38496         5.61203
     2017.29774        27.49985         5.55264
     2017.30047        24.41774         5.59640
     2017.30321        23.32163         5.46407
     2017.30595        26.04151         5.62662
     2017.30869        29.91140         5.47345
     2017.31143        32.99629         5.51929
     2017.31416        26.41118         5.53805
     2017.31690        33.93207         5.47866
     2017.31964        30.16996         5.57556
     2017.32238        25.54685         5.65683
     2017.32512        25.15574         5.44740
     2017.32785        25.52663         5.61099
     2017.33059        22.60752         5.48282
     2017.33333        22.09741         5.53701
     2017.33607        23.30830         5.55472
     2017.33806        27.21113         8.09816
     2017.34074        18.18094         9.61943
     2017.34342        29.73874         9.65694
     2017.34702        28.11985         5.48178
     2017.34976        29.75574         5.45678
     2017.35249        30.38163         5.47866
     2017.35523        27.67952         5.42135
     2017.35797        22.03141         5.53492
     2017.36071        28.71030         5.60369
     2017.36344        27.43619         5.50054
     2017.36618        28.34708         5.48908
     2017.36892        29.26197         5.41301
     2017.37109        30.06405         7.05828
     2017.37360        28.81261         8.51286
     2017.37716        24.60067         5.64641
     2017.37924        25.24363         7.37920
     2017.38261        23.15541         5.69018
     2017.38535        24.24530         5.48699
     2017.38809        26.84819         5.53805
     2017.39082        33.81908         5.46615
     2017.39356        34.70797         5.66517
     2017.39630        32.34486         5.51304
     2017.39904        29.23075         5.57660
     2017.40177        29.52564         5.54326
     2017.40451        31.38653         5.67246
     2017.40725        28.62742         5.64433
     2017.40997        29.94029         5.62245
     2017.41273        31.59120         5.70789
     2017.41546        27.49608         5.50783
     2017.41820        33.36597         5.70789
     2017.42094        29.11286         5.49429
     2017.42368        25.85775         5.55159
     2017.42642        31.00364         5.53388
     2017.42915        31.63653         5.59952
     2017.43189        35.29142         5.62662
     2017.43463        29.56131         5.53909
     2017.43737        39.28020         5.59744
     2017.44011        36.88209         5.46199
     2017.44284        34.38898         5.54222
     2017.44558        36.39787         5.52138
     2017.44832        38.68776         5.56618
     2017.44992        52.03902        15.06787
     2017.45379        39.05053         5.62974
     2017.45653        33.79642         5.79229
     2017.45927        34.53031         5.68392
     2017.46201        35.47820         5.57973
     2017.46475        33.25509         5.56722
     2017.46750        33.83400         5.74748
     2017.47022        29.36987         5.57243
     2017.47262        32.73827         6.28931
     2017.47570        29.74165         5.48803
     2017.47843        29.48454         5.54430
     2017.47994        43.77268        18.46468
     2017.48391        32.16332         5.48908
     2017.48665        38.01220         5.70476
     2017.48939        37.30209         5.56722
     2017.49212        36.00998         5.55055
     2017.49486        35.26087         5.61620
     2017.49760        37.90676         5.57660
     2017.50034        33.79265         5.54117
     2017.50308        45.20354         5.59223
     2017.50581        35.36843         5.52971
     2017.50855        34.92232         5.58806
     2017.51129        36.65421         5.72248
     2017.51403        35.93710         5.66517
     2017.51676        32.86799         5.63704
     2017.51950        37.50288         5.63808
     2017.52224        36.29876         5.58390
     2017.52499        37.29767         5.65788
     2017.52772        37.55654         5.99547
     2017.53045        40.77843         5.55472
     2017.53319        36.30332         5.53180
     2017.53496        40.94283         9.52357
     2017.53867        38.87010         5.60994
     2017.54141        46.79199         5.54326
     2017.54414        37.63188         5.53492
     2017.54688        37.99677         5.69747
     2017.54962        38.10366         5.74436
     2017.55239        35.47859         5.74123
     2017.55509        39.84344         5.49220
     2017.55783        35.06533         5.67246
     2017.56057        33.22421         5.81000
     2017.56331        36.15410         5.59327
     2017.56605        37.50299         5.65058
     2017.56878        31.29988         5.62453
     2017.57152        36.22477         5.68497
     2017.57426        37.11066         5.54222
     2017.57700        34.02355         5.59327
     2017.57974        31.48844         5.63287
     2017.58248        37.16334         6.33619
     2017.58470        34.56749         9.44542
     2017.58737        45.75528        26.61285
     2017.58983        35.12578         9.29225
     2017.59342        40.08989         5.57452
     2017.59616        38.95677         5.53597
     2017.59890        40.27566         5.65267
     2017.60164        40.72055         5.58077
     2017.60438        30.55744         5.57452
     2017.60712        35.68134         5.67350
     2017.61259        33.12012         6.65191
     2017.61532        37.59799         6.73631
     2017.61806        37.99388         6.25180
     2017.62081        35.30879         6.04965
     2017.62355        32.92967         6.29868
     2017.62627        34.60054         6.07675
     2017.62901        41.59144         6.41747
     2017.63153        36.27802         7.03848
     2017.63448        33.20221         6.57897
     2017.63689        38.52463         7.18540
     2017.63996        47.74099         6.82383
     2017.64271        41.33589         5.82042
     2017.64544        36.35878         5.69018
     2017.64818        40.04567         5.63912
     2017.65092        38.72856         5.58077
     2017.65367        41.69647         5.64225
     2017.65639        40.19634         5.79333
     2017.65913        41.71423         5.53076
     2017.66187        44.51012         5.56827
     2017.66461        47.29501         5.63078
     2017.66735        47.42990         5.60682
     2017.67008        46.20178         5.55055
     2017.67282        43.42167         5.66829
     2017.67556        41.96456         5.48387
     2017.67830        40.91145         5.50679
     2017.68104        39.84334         5.49845
     2017.68377        41.25823         5.67767
     2017.68653        43.83515         5.86314
     2017.68925        47.93801         5.64329
     2017.69199        51.78690         5.65579
     2017.69472        44.92479         5.51096
     2017.69746        49.10668         5.60578
     2017.70020        46.11657         5.78083
     2017.70294        51.23046         5.83605
     2017.70568        37.06234         5.73706
     2017.70841        44.73923         5.43698
     2017.71115        47.31812         5.55576
     2017.71387        46.38399         5.62662
     2017.71663        48.40290         5.48595
     2017.71937        45.52079         5.50471
     2017.72210        42.93268         5.55993
     2017.72484        41.08157         5.50783
     2017.72758        43.73646         5.47970
     2017.73032        45.22135         5.56097
     2017.73305        43.81924         5.50992
     2017.73579        41.20013         5.47553
     2017.73853        41.67902         5.88711
     2017.74127        38.52490         5.47449
     2017.74402        42.23081         5.59327
     2017.74674        43.47368         5.56306
     2017.74948        43.30357         5.52659
     2017.75222        42.80246         5.47449
     2017.75496        38.50835         5.52763
     2017.75770        37.16024         5.62453
     2017.76043        38.28713         5.55055
     2017.76317        43.52602         5.56410
     2017.76591        48.71991         5.55576
     2017.76865        46.82180         5.53597
     2017.77137        41.54067         5.66829
     2017.77412        37.98158         5.53701
     2017.77686        43.47547         5.53076
     2017.77960        42.95435         5.59848
     2017.78234        38.74024         5.47761
     2017.78507        35.96413         5.50783
     2017.78781        36.71602         5.47761
     2017.79055        43.74791         5.67455
     2017.79329        43.02780         5.82876
     2017.79603        42.19669         5.46199
     2017.79876        46.40258         5.64954
     2017.80152        50.45350         5.79229
     2017.80424        47.63436         5.55368
     2017.80698        49.54625         5.61307
     2017.80971        36.49114         5.59536
     2017.81245        31.31303         5.59640
     2017.81519        32.32691         5.68288
     2017.81793        32.94680         5.54743
     2017.82067        34.58069         5.59015
     2017.82340        33.16558         5.55264
     2017.82614        30.35047         5.64120
     2017.82888        37.23936         5.45469
     2017.83163        40.39527         5.58806
     2017.83423        43.93696         5.80583
     2017.90939        43.70274        12.57340
     2017.91039        36.83315         7.89393
     2017.91375        37.10293         5.72248
     2017.91649        38.72182         5.54743
     2017.91923        40.67971         5.55785
     2017.92197        26.95360         5.51096
     2017.92470        33.14948         5.58077
     2017.92744        31.69837         5.56201
     2017.93018        31.59526         5.60578
     2017.93292        30.11115         5.52659
     2017.93566        33.84604         5.53597
     2017.93839        33.57593         5.69851
     2017.94033        25.26069         9.21306
     2017.94389        38.48874         5.74540
     2017.94661        36.17660         5.59952
     2017.94935        37.95149         5.56201
     2017.95208        38.05538         5.66517
     2017.95482        37.43227         5.64537
     2017.95756        40.40116         5.63599
     2017.96030        41.89804         5.61411
     2017.96303        44.85993         5.51408
     2017.96577        33.34382         5.74853
     2017.96851        37.18771         5.62870
     2017.97125        35.46860         5.53597
     2017.97401        41.22153         5.59640
     2017.97672        35.18538         5.47449
     2017.97946        37.42227         5.55576
     2017.98220        37.26116         5.43489
     2017.98494        35.15605         5.50887
     2017.98767        34.40494         5.55889
     2017.99041        37.22383         5.44531
     2017.99315        38.91672         5.46511
     2017.99589        34.02861         5.55889
     2017.99851        34.12033         5.75790
     2018.00135        27.51736         5.57556
     2018.00410        27.45627         5.56097
     2018.00684        32.15016         5.56931
     2018.00958        32.10105         5.52138
     2018.01232        24.72394         5.48282
     2018.01505        29.25983         5.49741
     2018.01779        35.48872         5.53180
     2018.02053        31.26461         5.53076
     2018.02327        29.25850         5.55368
     2018.02600        39.17939         5.64016
     2018.02874        36.90228         5.52450
     2018.03148        30.27216         5.53076
     2018.03422        25.01105         5.44844
     2018.03696        26.25694         5.53701
     2018.03969        25.67383         5.52659
     2018.04243        14.95972         5.58702
     2018.04517        25.91861         5.49429
     2018.04791        36.34850         5.49845
     2018.05065        36.19839         5.44636
     2018.05338        36.88128         5.47761
     2018.05612        29.30317         5.56097
     2018.05886        32.55106         5.63495
     2018.06161        31.06297         5.49637
     2018.06371        48.90094         7.77202
     2018.06707        39.68073         5.62245
     2018.06981        29.80361         5.62036
     2018.07255        28.86050         5.60057
     2018.07529        20.92039         5.74123
     2018.07802        28.23928         5.71414
     2018.08076        22.21817         5.63704
     2018.08350        27.20906         5.58077
     2018.08624        29.18595         5.62766
     2018.08898        17.47084         5.76520
     2018.09171        30.95573         5.69226
     2018.09445        31.65762         5.57348
     2018.09721        27.80553         5.83918
     2018.09993        27.72140         5.60994
     2018.10266        28.21829         5.62245
     2018.10540        28.20717         5.87460
     2018.10814        31.85706         5.60578
     2018.11088        31.43595         5.52867
     2018.11253        20.70230        12.43274
     2018.11635        26.91573         5.63287
     2018.11909        28.96862         5.74332
     2018.12183        35.91951         5.69434
     2018.12457        35.15640         5.65892
     2018.12731        29.13529         5.58911
     2018.13004        36.62418         5.64954
     2018.13278        31.96807         5.62141
     2018.13552        36.04096         5.71727
     2018.13826        33.56885         5.58911
     2018.14099        32.36674         5.57348
     2018.14373        29.07062         5.58494
     2018.14647        33.59151         5.91107
     2018.14921        33.97840         5.69330
     2018.15194        37.28429         5.70893
     2018.15468        35.12618         5.56722
     2018.15742        35.43107         5.58911
     2018.16016        33.96296         5.57556
     2018.16290        19.50185         5.81313
     2018.16564        20.49274         5.70060
     2018.16837        28.44763         5.62141
     2018.17111        32.16352         5.62870
     2018.17384        28.18840         5.56097
     2018.17659        29.07130         5.57556
     2018.17932        28.25018         5.62557
     2018.18206        28.74807         5.83605
     2018.18480        36.19096         5.67559
     2018.18754        32.58585         5.56410
     2018.19028        24.49774         5.58285
     2018.19301        28.15963         5.49741
     2018.19575        35.40152         5.58702
     2018.19849        32.00341         5.63287
     2018.20123        35.45930         5.58285
     2018.20397        37.41719         5.44636
     2018.20670        38.66208         5.50262
     2018.20944        36.21297         5.46511
     2018.21218        31.06986         5.49533
     2018.21492        18.77774         5.46720
     2018.21765        36.54663         5.41093
     2018.22039        28.85552         5.45886
     2018.22218        35.28106        10.88021
     2018.22587        25.31230         5.50054
     2018.22861        26.50119         5.36612
     2018.23134        29.73808         5.41822
     2018.23408        32.63597         5.47970
     2018.23682        26.74386         5.54117
     2018.23956        31.01475         5.40676
     2018.24230        32.52964         5.48595
     2018.24503        29.53653         5.43906
     2018.24777        29.78142         5.41197
     2018.25051        34.95331         5.45052
     2018.25325        32.77019         5.40259
     2018.25598        33.02708         5.39217
     2018.25872        24.42897         5.60994
     2018.26146        25.48386         5.58911
     2018.26420        29.52975         5.44115
     2018.26694        29.70964         5.47449
     2018.26967        23.37753         5.38384
     2018.27241        30.04642         5.55993
     2018.27515        38.72731         5.45157
     2018.27789        37.67420         5.55785
     2018.28062        28.06809         5.55785
     2018.28336        40.60298         5.47032
     2018.28610        29.64587         5.49012
     2018.28884        33.90175         5.47345
     2018.29158        34.11764         5.60890
     2018.29431        28.68853         5.46928
     2018.29705        28.98242         5.36196
     2018.29979        31.37531         5.42656
     2018.30253        26.87920         5.50887
     2018.30527        29.37209         5.40364
     2018.30800        28.85898         5.39009
     2018.31074        27.07187         5.32966
     2018.31348        34.17876         5.37863
     2018.31622        31.44565         5.36925
     2018.31895        35.27854         5.48595
     2018.32169        38.00343         5.46720
     2018.32443        29.29431         5.51513
     2018.32717        31.85520         5.42135
     2018.32991        38.16709         5.54847
     2018.33264        35.69998         5.36821
     2018.33538        32.13487         5.81730
     2018.33812        31.08476         5.57764
     2018.34086        33.20165         5.45990
     2018.34360        31.89954         5.42343
     2018.34633        31.14343         5.35050
     2018.34907        26.97432         5.42760
     2018.35181        42.05721         5.61620
     2018.35455        42.90010         5.43073
     2018.35728        36.46899         5.45782
     2018.36002        35.99488         5.46407
     2018.36276        34.61076         5.51096
     2018.36550        35.54865         5.41301
     2018.36691         7.56067        90.23946
     2018.41048        38.33955        18.30422
     2018.41204        45.30677         5.44323
     2018.41478        36.90866         5.39947
     2018.42299        39.68733         5.53805
     2018.42573        40.33522         5.47449
     2018.42847        39.25711         5.45261
     2018.43121        41.87800         5.40676
     2018.43394        36.85288         5.69018
     2018.43668        40.70777         5.48908
     2018.43942        35.35666         5.41822
     2018.44216        34.90455         5.34841
     2018.44490        36.18144         5.37238
     2018.44763        39.96633         5.46094
     2018.45037        40.86222         5.42864
     2018.45311        42.18611         5.39738
     2018.45585        40.76500         5.42552
     2018.45859        41.64989         5.45469
     2018.46132        33.17378         5.49324
     2018.46406        40.01967         5.43698
     2018.46680        39.73556         5.40780
     2018.46954        38.77145         5.46720
     2018.47227        36.60333         5.57764
     2018.47501        42.53922         5.39322
     2018.47775        41.02811         5.41406
     2018.48049        42.94700         5.90795
     2018.48323        37.74889         5.43906
     2018.48596        33.97578         5.37967
     2018.48870        40.67167         5.35987
     2018.49144        40.08156         5.40051
     2018.49418        43.39345         5.54534
     2018.49692        45.65034         5.69643
     2018.49965        39.15423         5.55785
     2018.50239        35.18112         5.38592
     2018.50513        33.26301         5.36196
     2018.50787        39.39389         5.48387
     2018.51060        37.80878         5.54847
     2018.51334        40.58267         5.50679
     2018.51608        38.63356         5.49012
     2018.51882        36.44045         5.41093
     2018.52156        33.59134         5.53180
     2018.52429        38.30823         5.44427
     2018.52703        37.46212         5.45886
     2018.52977        38.85401         5.47032
     2018.53251        44.40690         5.53180
     2018.53525        44.22179         5.38488
     2018.53798        39.19668         5.40051
     2018.54072        45.13357         5.50783
     2018.54346        38.86345         5.48699
     2018.54533        39.91512         8.57955
     2018.54893        37.45423         5.42760
     2018.55167        42.07612         5.52555
     2018.55441        40.25101         5.43385
     2018.55715        42.58690         5.56514
     2018.55989        39.38379         5.58598
     2018.56262        38.51668         5.35883
     2018.56536        44.30357         5.43177
     2018.56810        48.08046         5.51408
     2018.57084        42.26935         5.42968
     2018.57357        35.18724         5.57243
     2018.57631        36.61613         5.74853
     2018.57905        35.66201         5.69330
     2018.58179        43.88590         5.62870
     2018.58453        52.23979         5.57764
     2018.58726        43.61068         5.36091
     2018.59000        42.98857         5.41822
     2018.59274        38.22846         5.40364
     2018.59548        39.38135         5.40051
     2018.59822        53.23524         5.44948
     2018.60095        45.08813         5.38905
     2018.60369        45.64702         5.37654
     2018.60643        42.16291         5.41822
     2018.60917        48.61180         5.60994
     2018.61190        41.23169         5.45782
     2018.61464        44.34658         5.41614
     2018.61738        42.89746         5.45052
     2018.62012        46.36035         5.34320
     2018.62286        46.46124         5.46511
     2018.62559        47.36413         5.71206
     2018.62833        38.03702         5.55785
     2018.63107        38.47691         5.41614
     2018.63381        46.84780         5.60057
     2018.63655        42.32569         5.39009
     2018.63928        42.36858         5.65371
     2018.64202        46.46647         5.71310
     2018.64476        44.68536         5.49741
     2018.64750        43.89825         5.38801
     2018.65023        46.48114         5.59015
     2018.65297        49.85902         5.42864
     2018.65571        43.40291         5.39947
     2018.65845        41.87080         5.43281
     2018.66119        43.12669         5.46511
     2018.66392        44.04558         5.36612
     2018.66666        49.56947         5.39947
     2018.66940        50.91336         5.40989
     2018.67214        47.61925         5.65371
     2018.67488        44.21314         5.42239
     2018.67761        43.06103         5.41197
     2018.68035        39.62892         5.46720
     2018.68309        34.98981         5.44844
     2018.68583        45.54270         5.61203
     2018.68856        41.60458         5.44427
     2018.69130        40.56347         5.45678
     2018.69404        44.75036         5.47241
     2018.69678        45.99525         5.35466
     2018.69952        41.67014         5.48178
     2018.70225        42.17603         5.53180
     2018.70499        39.50692         5.52138
     2018.70773        40.47881         5.49116
     2018.71047        36.96970         5.42343
     2018.71321        37.34759         5.34320
     2018.71594        40.60148         5.35050
     2018.71868        38.28237         5.37550
     2018.72142        37.67926         5.39217
     2018.72416        44.41415         5.44010
     2018.72689        38.98803         5.40155
     2018.72963        39.28492         5.44948
     2018.73237        36.15381         5.40676
     2018.73511        34.96970         5.41510
     2018.73785        40.62259         5.37550
     2018.74058        35.93348         5.38592
     2018.74332        43.55737         5.41093
     2018.74606        39.86626         5.36508
     2018.74880        37.18215         5.53284
     2018.75154        38.55904         5.60369
     2018.75427        40.68393         5.37967
     2018.75701        41.32382         5.46824
     2018.75975        40.69271         5.41718
     2018.76249        41.83759         5.39217
     2018.76522        36.82348         5.45782
     2018.76796        38.29637         5.40989
     2018.77070        42.41326         5.41406
     2018.77344        41.20115         5.50158
     2018.77618        39.61004         5.44948
     2018.77891        41.07293         5.50054
     2018.78165        45.34382         5.52450
     2018.78439        41.99771         5.52034
     2018.78713        37.47160         5.38592
     2018.78987        30.21849         5.50783
     2018.79260        33.68938         5.42135
     2018.79534        42.16027         5.40051
     2018.79808        35.85215         5.41093
     2018.80082        39.47304         5.44427
     2018.80355        42.17693         5.44323
     2018.80629        41.41382         5.62453
     2018.80903        38.66071         5.46511
     2018.81177        39.45460         5.72144
     2018.81451        38.13049         5.59952
     2018.81724        40.04538         5.59536
     2018.81998        39.84927         5.50887
     2018.82272        43.71516         5.51825
     2018.82546        42.57905         5.47345
     2018.82820        38.68794         5.44844
     2018.83093        50.17183         5.47136
     2018.83367        38.08172         5.46511
     2018.83641        48.79760         5.66204
     2018.83915        41.98449         5.48595
     2018.84188        48.20238         5.61620
     2018.84462        40.79927         5.46407
     2018.84736        35.51716         5.44948
     2018.85010        37.46705         5.40051
     2018.85284        36.60494         5.42239
     2018.85557        31.88983         5.51825
     2018.85831        37.63572         5.48074
     2018.86105        36.24761         5.46407
     2018.86379        34.65550         5.53492
     2018.86653        40.85939         5.42864
     2018.86926        36.13028         5.48491
     2018.87200        40.66916         5.48908
     2018.87474        46.80105         5.50992
     2018.87748        39.97894         5.52346
     2018.88021        36.95883         5.67038
     2018.88295        39.91372         5.53076
     2018.88569        38.85361         5.55993
     2018.88843        46.34150         5.64016
     2018.89117        41.24439         5.60057
     2018.89390        39.56328         5.58494
     2018.89664        37.28817         5.65892
     2018.89938        36.55606         5.62036
     2018.90212        38.79395         5.55368
     2018.90485        46.11884         5.60994
     2018.90759        45.71672         5.57973
     2018.91033        43.91161         5.50471
     2018.91307        48.52250         5.64433
     2018.91581        48.04539         5.50158
     2018.91854        47.89128         5.53492
     2018.92128        41.77717         5.53284
     2018.92402        39.49806         5.51200
     2018.92676        42.57095         5.51929
     2018.92950        43.43584         5.51200
     2018.93223        41.58773         5.61203
     2018.93497        38.62962         5.55889
     2018.93771        36.81251         5.50887
     2018.94045        33.67340         5.54117
     2018.94318        25.78029         5.45469
     2018.94592        35.26617         5.46720
     2018.94866        44.30306         5.47970
     2018.95140        51.62495         5.63183
     2018.95414        51.22884         5.43906
     2018.95687        28.44273         5.40155
     2018.95961        41.87262         5.41510
     2018.96235        49.55551         5.47136
     2018.96509        43.01540         5.51096
     2018.96783        41.50129         5.48178
     2018.97056        46.04918         5.47970
     2018.97330        37.54707         5.50471
     2018.97604        31.34496         5.47866
     2018.97878        44.22685         5.50158
     2018.98151        33.51173         5.46720
     2018.98425        37.89862         5.60057
     2018.98699        34.49451         5.55472
     2018.98973        42.07540         5.49220
     2018.99247        47.44329         5.59432
     2018.99520        39.32918         5.65371
     2018.99794        34.20807         5.54222
     2019.00068        33.04096         5.54743
     2019.00342        35.32885         5.56097
     2019.00616        36.07774         5.57452
     2019.00889        41.81763         5.51825
     2019.01163        40.18452         5.61932
     2019.01437        46.17441         5.51200
     2019.01711        40.01629         5.58181
     2019.01984        33.95718         5.46303
     2019.02258        21.86307         5.57452
     2019.02532        33.89696         5.54847
     2019.02806        36.26885         5.57556
     2019.03080        33.27474         5.54638
     2019.03349        29.73856         5.48908
     2019.03901        35.09341         5.44115
     2019.04175        36.61730         5.45365
     2019.04449        42.01719         5.53076
     2019.04648        40.41102         8.36073
     2019.06214        32.42826        17.53733
     2019.06365        39.70441         5.55055
     2019.06639        39.06430         5.53701
     2019.06913        34.42519         5.65475
     2019.07186        34.94108         5.68809
     2019.07460        39.05297         5.48178
     2019.07734        37.47486         5.44531
     2019.08008        40.60175         5.42864
     2019.08282        36.78964         5.64120
     2019.08555        42.63853         5.44844
     2019.08829        42.90442         5.41926
     2019.09103        46.84930         5.43073
     2019.09343        41.29571         6.30806
     2019.19822        36.43257        96.74133
     2019.20054        29.34687         5.51929
     2019.20328        28.47776         5.35466
     2019.20602        28.97265         5.75999
     2019.20876        28.21454         5.37133
     2019.21149        29.71843         5.36196
     2019.21423        34.91532         5.40051
     2019.21697        35.85621         5.48908
     2019.21971        36.56010         5.51408
     2019.22245        34.48299         5.36717
     2019.22518        38.64088         5.36404
     2019.22792        33.89477         5.40259
     2019.23066        32.90766         5.42552
     2019.23340        38.88255         5.35883
     2019.23613        37.15943         5.44844
     2019.23887        35.32132         5.39947
     2019.24161        30.30221         5.69018
     2019.24435        36.46010         5.48699
     2019.24709        37.29299         5.48699
     2019.24982        37.37688         5.38592
     2019.25256        40.71377         5.53597
     2019.25530        37.95066         5.41822
     2019.25804        40.33755         5.38175
     2019.26078        41.42844         5.44427
     2019.26351        41.80133         5.48595
     2019.26625        36.98422         5.37342
     2019.26899        36.36311         5.56514
     2019.27173        36.05799         5.65371
     2019.27446        34.24688         5.40468
     2019.27720        40.11077         5.48803
     2019.27994        39.52266         5.37863
     2019.28268        41.74255         5.47136
     2019.28542        45.46844         5.41093
     2019.28815        42.90233         5.37342
     2019.29089        50.76322         5.39217
     2019.29363        40.01711         5.38905
     2019.29637        40.63500         5.51200
     2019.29911        43.06289         5.39113
     2019.30184        42.71078         5.45261
     2019.30458        32.52767         5.37550
     2019.30732        34.25956         5.46928
     2019.31006        37.07744         5.53805
     2019.31279        37.69733         5.52138
     2019.31553        45.98022         5.38488
     2019.31827        46.37211         5.48074
     2019.32101        38.49500         5.35050
     2019.32375        26.15089         5.38488
     2019.32648        36.21678         5.36612
     2019.32922        35.84167         5.38384
     2019.33196        39.70556         5.52867
     2019.33470        40.99745         5.53388
     2019.33744        40.91634         5.46928
     2019.34017        33.59223         5.42656
     2019.34291        41.48812         5.37550
     2019.34565        37.88400         5.50366
     2019.34839        33.35189         5.46511
     2019.35112        33.08478         5.35258
     2019.35386        37.51867         5.37550
     2019.35660        40.79956         5.40885
     2019.35934        40.58645         5.44427
     2019.36208        39.45834         5.46511
     2019.36481        41.74323         5.38384
     2019.36755        36.97612         5.44115
     2019.37029        40.85601         5.44948
     2019.37303        41.97890         5.49012
     2019.37577        43.20079         5.56201
     2019.37850        41.63868         5.48908
     2019.38124        42.87256         5.48178
     2019.38398        45.20545         5.45052
     2019.38672        40.78834         5.50366
     2019.38945        34.76823         5.45573
     2019.39219        40.35212         5.38071
     2019.39493        38.46201         5.39634
     2019.39767        37.36290         5.43698
     2019.40041        38.38779         5.42239
     2019.40314        40.21068         5.51513
     2019.40588        43.93157         5.42031
     2019.40862        38.92746         5.60786
     2019.41136        37.61135         5.42968
     2019.41410        41.03724         5.54222
     2019.41683        42.26013         5.60369
     2019.41957        43.94601         5.65162
     2019.42231        39.34490         5.41822
     2019.42505        46.92279         5.44844
     2019.42778        45.51168         5.58598
     2019.43052        45.14457         5.77249
     2019.43326        39.65246         5.46928
     2019.43600        35.47935         5.45886
     2019.43874        35.59724         5.44010
     2019.44147        35.55313         5.49324
     2019.44421        39.21102         5.54743
     2019.44695        44.85891         5.70476
     2019.44969        37.42980         5.58702
     2019.45243        43.45169         5.47657
     2019.45516        40.04357         5.45886
     2019.45790        39.44646         5.57660
     2019.46064        41.85335         5.65788
     2019.46338        41.53524         5.91211
     2019.46611        44.78913         5.79333
     2019.46885        39.87302         5.76416
     2019.47159        44.16191         5.52034
     2019.47433        44.10180         5.76103
     2019.47707        44.10969         5.59848
     2019.47980        39.89558         5.56722
     2019.48254        37.77447         5.55055
     2019.48528        44.06436         5.62036
     2019.48802        36.47825         5.56827
     2019.49076        33.43013         5.45157
     2019.49349        35.68702         5.47657
     2019.49623        41.49491         5.45052
     2019.49897        36.30080         5.47345
     2019.50171        36.57769         5.49324
     2019.50444        43.47758         5.81000
     2019.50718        38.86547         5.45990
     2019.50992        38.76936         5.49012
     2019.51266        29.94325         5.47866
     2019.51540        47.55314         5.44323
     2019.51813        42.61903         5.49429
     2019.52087        33.33192         5.52034
     2019.52361        32.68481         5.49741
     2019.52635        32.67670         5.42552
     2019.52908        34.02258         5.69747
     2019.53182        21.39347         5.63704
     2019.53456        28.61336         5.65579
     2019.53730        29.44525         5.59015
     2019.54004        30.75514         5.55264
     2019.54277        42.33603         5.65267
     2019.54469        30.79276         8.91714
     2019.55476        46.28906        11.84507
     2019.55614        33.96601         6.79153
     2019.55796        38.48060        23.71306
     2019.56070        47.88250        24.81234
     2019.56347        31.69644        27.52770
     2019.56618        16.66628        18.86584
     2019.56890        39.68114        20.17975
     2019.57160        11.55198        31.44862
     2019.57435        52.36389        27.54750
     2019.57710        51.29479        24.27989
     2019.57987        33.38573        30.62963
     2019.58256        67.05455        34.44739
     2019.58801        47.26428        96.87887
     2019.59077        50.33821        27.43913
     2019.59350        33.98009       125.95076
     2019.59623         5.72997        32.15924
     2019.59897        57.30685        33.27622
     2019.60443        72.54162        84.90564
     2019.60724        -5.56339       132.08586
     2019.60990        -6.68361        93.54249
     2019.61537        51.61116       129.06415
     2019.61813        51.97208       127.87110
     2019.62085        30.60194       131.46797
     2019.63180        13.65549       139.31293
     2019.66324        37.39016         5.58285
     2019.66598        30.29105         5.50783
     2019.66872        30.62294         5.43802
     2019.67145        28.48983         5.43385
     2019.67419        31.63271        23.89541
     2019.67695        34.00863         5.60786
     2019.67967        34.21849         5.59223
     2019.68240        29.72338         5.41197
     2019.68514        38.04927         5.48699
     2019.68788        39.58616         5.50575
     2019.69062        37.33105         5.48178
     2019.69336        30.36794         5.42968
     2019.69609        31.07383         5.42552
     2019.69883        34.21872         5.58181
     2019.70157        32.66861         5.40468
     2019.70431        38.28350         5.42239
     2019.70705        34.93639         5.45157
     2019.70978        31.48527         5.45990
     2019.71252        32.84616         5.39322
     2019.71526        34.06005         5.38488
     2019.71800        30.55094         5.61932
     2019.72073        34.69683         5.73706
     2019.72347        28.46572         5.40155
     2019.72621        32.86761         5.49741
     2019.72895        32.54450         5.62974
     2019.73169        33.85439         5.41822
     2019.73442        39.18728         5.43802
     2019.73716        35.46217         5.41822
     2019.73990        40.33406         5.60682
     2019.74264        34.45195         5.47241
     2019.74538        31.69483         5.35675
     2019.74811        32.83172         5.53284
     2019.75085        33.11361         5.49116
     2019.75359        33.12150         5.68705
     2019.75633        32.70239         5.57660
     2019.75906        34.80728         5.47866
     2019.76180        32.70117         5.45469
     2019.76454        36.17406         5.50679
     2019.76728        39.77795         5.61828
     2019.77002        29.35884         5.51513
     2019.77275        28.99473         5.69539
     2019.77549        31.69362         5.55472
     2019.77823        33.59651         5.54326
     2019.78097        33.81740         5.53076
     2019.78371        32.97728         5.56306
     2019.78644        32.27317         5.63078
     2019.78918        40.76906         5.56514
     2019.79192        45.23095         5.55993
     2019.79466        44.23084         5.77874
     2019.79739        37.29473         5.51929
     2019.80013        38.69862         5.48178
     2019.80287        36.30351         5.50783
     2019.80561        40.12440         5.73498
     2019.80835        31.60429         5.50575
     2019.81108        26.80918         5.53805
     2019.81382        30.29307         5.60682
     2019.81656        40.36896         5.50887
     2019.81930        33.18684         5.46615
     2019.82203        33.04873         5.53388
     2019.82477        31.25062         5.57556
     2019.82751        28.91651         5.55368
     2019.83025        30.89240         5.62453
     2019.83299        29.47729         5.56097
     2019.83572        31.56918         5.46720
     2019.83846        36.60307         5.49741
     2019.84120        34.34396         5.53805
     2019.84394        32.82085         5.70581
     2019.84668        27.46474         5.52450
     2019.84941        32.19963         5.50992
     2019.85215        32.89952         5.58911
     2019.85489        37.10340         5.55159
     2019.85763        30.09229         5.52867
     2019.86036        28.53118         5.58494
     2019.86310        31.04507         5.53492
     2019.86584        38.55096         5.56827
     2019.86858        34.82785         5.52555
     2019.87132        33.20974         5.63183
     2019.87405        34.67863         5.50992
     2019.87679        38.68252         5.58702
     2019.87953        46.30541         5.48595
     2019.88227        48.75330         5.54951
     2019.88501        44.04019         5.50262
     2019.88774        38.16708         5.70060
     2019.89048        41.99697         5.49324
     2019.89322        45.74785         5.68497
     2019.89596        37.19774         5.47761
     2019.89869        41.74463         5.44531
     2019.90143        39.19252         5.42760
     2019.90417        37.09941         5.55159
     2019.90691        37.17530         5.48074
     2019.90965        35.01819         5.44115
     2019.91238        38.23208         5.43281
     2019.91512        39.41897         5.46824
     2019.91786        43.66786         5.48178
     2019.92060        41.31975         5.48178
     2019.92607        36.62253         5.43594
     2019.92881        35.32641         5.47136
     2019.93155        42.10030         5.46303
     2019.93429        39.15619         5.52346
     2019.93702        34.12008         5.49637
     2019.93976        35.26797         5.47449
     2019.94250        33.19386         5.51825
     2019.94524        25.80475         5.49429
     2019.94798        31.94764         5.52034
     2019.95071        36.26953         5.71206
     2019.95345        39.20642         5.48074
     2019.95619        35.81231         5.44948
     2019.95893        32.61820         5.51929
     2019.96167        35.30509         5.48595
     2019.96440        37.28297         5.66829
     2019.96714        24.55586         5.57556
     2019.96988        38.62675         5.49533
     2019.97262        40.58564         5.52346
     2019.97535        38.06553         5.48178
     2019.97809        32.88542         5.52450
     2019.98083        33.55831         5.44219
     2019.98357        29.87920         5.45990
     2019.98631        33.15809         5.45157
     2019.98904        34.79998         5.47032
     2019.99178        32.24487         5.49324
     2019.99452        31.84576         5.50158
     2019.99726        40.40765         5.50366
     2020.00000        47.38954         5.49533
     2020.00273        35.84642         5.52034
     2020.00547        45.43231         5.56201
     2020.00821        41.15920         5.70372
     2020.01095        39.05509         5.64954
     2020.01368        30.41098         5.64120
     2020.01642        32.45687         5.72664
     2020.01916        36.28376         5.60265
     2020.02190        31.08665         5.57139
     2020.02464        29.82854         5.61099
     2020.02737        17.78643         5.54534
     2020.03011        23.47632         5.56514
     2020.03285        22.30621         5.45261
     2020.03559        33.08010         5.37654
     2020.03833        32.53598         5.41093
     2020.04106        33.52487         5.53597
     2020.04380        31.81776         5.58285
     2020.04654        27.41265         5.39738
     2020.04928        15.52354         5.32861
     2020.05201        33.93143         5.43177
     2020.05475        33.33732         5.37342
     2020.05749        35.32021         5.39009
     2020.06023        39.60110         5.45469
     2020.06297        35.51799         5.41406
     2020.06570        38.83988         5.40780
     2020.06844        43.96377         5.51513
     2020.07118        41.01666         5.40572
     2020.07392        38.78154         5.47553
     2020.07666        37.69943         5.40989
     2020.07939        26.29532         5.42656
     2020.08213        35.47521         5.43385
     2020.08487        37.73510         5.50679
     2020.08761        29.57799         5.44740
     2020.09034        31.12488         5.41406
     2020.09308        24.84477         5.42656
     2020.09582        31.82466         5.42239
     2020.09856        31.98155         5.46303
     2020.10130        29.15344         5.43802
     2020.10403        35.52033         5.47241
     2020.10677        24.65322         5.52242
     2020.10951        23.06511         5.42760
     2020.11225        35.11199         6.05591
     2020.11498        28.14388         5.39843
     2020.11772        29.87877         5.60786
     2020.12046        26.63966         5.65371
     2020.12320        29.91155         5.43385
     2020.12594        31.32844         5.39426
     2020.12867        28.02233         5.38071
     2020.13141        23.45922         5.48282
     2020.13415        20.91611         5.39217
     2020.13689        26.62400         5.56097
     2020.13963        29.18889         5.56097
     2020.14236        30.72878         5.45573
     2020.14510        34.65367         5.50575
     2020.14784        23.38055         5.44323
     2020.15058        21.51744         5.46928
     2020.15331        26.62633         5.45261
     2020.15605        27.33622         5.45365
     2020.15879        28.74911         5.42239
     2020.16077        30.24092         9.02863
     2020.16826        41.96556        22.59399
     2020.16974        31.77767         5.54847
     2020.17248        34.10856         5.85272
     2020.17522        28.61345         5.40155
     2020.17796        34.01134         5.44219
     2020.18069        35.23923         5.41197
     2020.18343        31.45811         5.43802
     2020.18617        27.30500         5.44219
     2020.18891        28.09689         5.53388
     2020.19164        30.94778         5.58911
     2020.19438        29.53567         5.52450
     2020.19712        26.60056         5.54222
     2020.19986        26.04645         5.51408
     2020.20260        25.55234         5.62766
     2020.20533        26.59723         5.53388
     2020.20807        27.34912         5.59015
     2020.21081        24.13201         5.65892
     2020.21355        24.19590         6.06945
     2020.21629        28.18279         5.78083
     2020.21902        27.98268         5.60369
     2020.22179        28.69460         5.68392
     2020.22450        36.33845         5.62662
     2020.22724        29.19434         5.59432
     2020.22997        34.09023         5.48491
     2020.23271        30.77012         5.48803
     2020.23545        31.23701         5.49429
     2020.23819        31.92790         5.51617
     2020.24093        33.19979         5.60369
     2020.24366        35.49668         5.59952
     2020.24640        30.20657         5.56931
     2020.24914        25.65446         5.51304
     2020.25188        30.13335         5.56827
     2020.25462        30.55124         5.50992
     2020.25735        31.59512         5.59640
     2020.26009        37.40701         5.52555
     2020.26283        33.57190         5.49220
     2020.26557        27.07779         5.52659
     2020.26830        33.10768         5.47761
     2020.27104        27.70457         5.51721
     2020.27378        29.65746         5.52034
     2020.27652        29.41335         5.56306
     2020.27929        28.59929         5.68080
     2020.28199        26.50213         5.61203
     2020.28473        23.47302         5.60890
     2020.28747        34.27391         5.55576
     2020.29021        26.41680         5.51825
     2020.29295        26.29068         5.53492
     2020.29568        35.29257         5.49429
     2020.29842        34.33346         5.55889
     2020.30116        32.69335         5.56618
     2020.30390        32.17224         5.50783
     2020.30663        30.10613         5.61411
     2020.30937        30.03402         5.63183
     2020.31211        31.74091         5.69643
     2020.31485        29.34380         5.57973
     2020.31759        26.19269         5.49324
     2020.32032        26.97958         5.66517
     2020.32306        29.49847         5.48803
     2020.32580        26.24536         5.45052
     2020.32854        34.87324         5.52242
     2020.33128        28.67113         5.49533
     2020.33401        27.66302         5.52034
     2020.33675        31.85091         5.51408
     2020.33949        29.14780         5.47657
     2020.34223        25.16769         5.58702
     2020.34496        29.65758         5.53180
     2020.34770        24.26347         5.50992
     2020.35044        27.09436         5.58702
     2020.35318        21.59525         5.55576
     2020.35592        26.43914         5.58390
     2020.35865        32.94403         5.48178
     2020.36139        34.53592         5.49845
     2020.36413        35.14981         5.59744
     2020.36687        35.22969         5.49533
     2020.36961        26.27458         5.50887
     2020.37234        32.55847         5.41510
     2020.37508        33.58336         5.47032
     2020.37782        29.48625         5.50783
     2020.38056        28.56514         5.54013
     2020.38329        34.61403         5.45261
     2020.38603        36.73392         5.42135
     2020.38877        34.64981         5.55785
     2020.39151        30.35870         5.46303
     2020.39425        26.43859         5.48178
     2020.39698        27.36448         5.54847
     2020.39972        27.74437         5.57660
     2020.40246        26.23925         5.61724
     2020.40520        24.79414         5.52555
     2020.40794        25.52003         5.46511
     2020.41067        26.41592         5.44740
     2020.41341        39.65381         5.56618
     2020.41615        27.11770         5.47761
     2020.41889        29.62059         5.46094
     2020.42162        25.10648         5.61099
     2020.42436        30.28937         5.89544
     2020.42710        28.28426         5.75061
     2020.42984        30.91715         5.59015
     2020.43258        29.75704         5.59432
     2020.43531        32.92093         5.61724
     2020.43805        28.54581         5.62141
     2020.44079        28.62370         5.65475
     2020.44353        32.51859         5.69539
     2020.44626        28.30348         5.53492
     2020.44900        33.29437         5.49429
     2020.45174        34.83026         5.50887
     2020.45448        26.40615         5.47866
     2020.45722        33.63704         5.49845
     2020.45995        32.86593         5.47866
     2020.46269        24.49982         5.43073
     2020.46543        29.28171         5.44115
     2020.46817        28.41760         5.47970
     2020.47091        34.82649         5.59848
     2020.47364        25.98338         5.48178
     2020.47638        34.10826         5.45678
     2020.47912        31.35815         5.61828
     2020.48186        30.12504         5.48908
     2020.48459        25.23893         5.61203
     2020.48733        33.01582         5.83397
     2020.49007        36.04071         5.72144
     2020.49281        31.48960         5.59536
     2020.49555        35.09249         5.71727
     2020.49828        33.99038         5.53388
     2020.50102        26.45127         5.52867
     2020.50376        24.84616         5.61411
     2020.50650        27.88105         5.43177
     2020.50924        27.38294         5.43489
     2020.51197        27.02282         5.46928
     2020.51471        28.26071         5.52450
     2020.51745        29.36660         5.51825
     2020.52019        34.62449         5.75478
     2020.52292        31.77238         5.60890
     2020.52566        30.48527         5.67871
     2020.52840        33.22816         5.70997
     2020.53114        26.27405         5.60161
     2020.53388        27.27294         5.58911
     2020.53661        30.11483         5.61515
     2020.53935        25.10472         5.68497
     2020.54209        27.58261         5.64016
     2020.54483        32.82150         5.58181
     2020.54757        30.50438         5.56201
     2020.55030        30.25227         5.60994
     2020.55304        30.23916         5.73498
     2020.55578        23.28905         5.79229
     2020.55852        33.48594         5.67350
     2020.56125        37.36283         5.66725
     2020.56399        33.63872         5.56931
     2020.56673        26.66761         5.62245
     2020.56947        34.72850         5.65371
     2020.57221        23.53739         5.91316
     2020.57494        30.63828         5.62245
     2020.57768        33.64017         5.55472
     2020.58042        34.21306         5.72664
     2020.58316        39.38095         5.72664
     2020.58590        35.77383         5.59432
     2020.58863        32.90272         5.69851
     2020.59137        32.69461         5.62766
     2020.59411        40.45450         5.60890
     2020.59685        42.71139         6.10800
     2020.59958        32.68228         5.80271
     2020.60232        32.33717         5.63912
     2020.60506        30.12406         5.64746
     2020.60780        36.66095         5.66204
     2020.61054        38.34684         5.57139
     2020.61327        37.83073         5.74332
     2020.61601        35.96462         5.82355
     2020.61875        30.60051         5.60369
     2020.62149        28.59139         5.63183
     2020.62423        34.96928         5.64433
     2020.62696        31.00617         5.70997
     2020.62970        26.89306         6.08404
     2020.63244        29.92895         5.73915
     2020.63518        34.10984         5.67142
     2020.63791        28.94173         5.79333
     2020.64065        33.57062         5.75165
     2020.64339        27.78651         5.65683
     2020.64613        37.50140         5.66204
     2020.64887        36.37429         5.67246
     2020.65160        36.29018         5.57973
     2020.65434        28.79307         5.64016
     2020.65708        37.47795         5.60265
     2020.65982        37.62384         5.71518
     2020.66256        37.56373         5.62870
     2020.66529        41.90362         5.69122
     2020.66803        40.66451         5.55993
     2020.67077        37.19540         5.83605
     2020.67351        39.74329         5.61932
     2020.67624        39.62118         5.60890
     2020.67898        32.42607         5.65058
     2020.68172        34.09296         5.58911
     2020.68413        38.24638         6.83009
     2020.68725        32.26781         7.17185
     2020.68993        33.91963         5.68497
     2020.69267        35.26052         5.75999
     2020.69541        35.44740         5.86523
     2020.69815        35.21529         5.71102
     2020.70089        36.56518         5.58077
     2020.70362        37.33907         5.70476
     2020.70636        37.33896         6.01735
     2020.70910        30.20785         5.91316
     2020.71184        35.98974         5.71518
     2020.71457        36.95063         5.77874
     2020.71731        36.62852         5.74123
     2020.72008        30.68545         5.83918
     2020.72279        36.94530         5.65058
     2020.72553        38.28519         5.77249
     2020.72826        40.43208         5.85064
     2020.73100        39.84796         5.69747
     2020.73374        41.92785         5.65058
     2020.73648        30.47274         5.65996
     2020.73921        35.79663         5.62141
     2020.74195        36.47052         5.62141
     2020.74469        35.36341         5.57035
     2020.74743        34.16330         5.66100
     2020.75017        33.36419         5.60265
     2020.75290        34.75608         5.65996
     2020.75564        33.13297         5.57452
     2020.75838        48.05386         5.70893
     2020.76112        39.47275         5.65162
     2020.76386        39.73364         5.63704
     2020.76659        42.72052         5.54117
     2020.76933        40.91341         5.71623
     2020.77207        45.24230         5.64537
     2020.77481        52.19119         5.66204
     2020.77754        53.18408         5.59952
     2020.78028        51.19297         5.57348
     2020.78302        43.85586         5.62557
     2020.78576        49.35275         5.63495
     2020.78850        36.40364         5.73811
     2020.79123        41.03753         5.72560
     2020.79397        38.55542         5.63808
     2020.79671        48.49431         5.70893
     2020.79945        38.44720         5.56722
     2020.80219        37.72008         5.79646
     2020.80492        40.65997         5.58911
     2020.80766        36.46886         5.67871
     2020.81040        37.90175         5.60265
     2020.81314        46.45164         5.55472
     2020.81587        34.96353         5.58702
     2020.81861        39.88442         5.58285
     2020.82135        41.13131         5.55472
     2020.82409        45.58920         5.71623
     2020.82683        42.47709         5.61203
     2020.82956        35.13298         5.65579
     2020.83230        41.00287         5.63599
     2020.83504        39.28676         5.63808
     2020.83778        40.21865         5.52138
     2020.84052        43.51553         5.54534
     2020.84325        42.05042         5.65579
     2020.84599        43.80531         5.74019
     2020.84873        45.43520         5.45365
     2020.85147        40.79909         5.54326
     2020.85420        48.40298         5.50054
     2020.85694        45.96987         5.56514
     2020.85968        47.02876         5.52346
     2020.86242        48.07165         5.60994
     2020.86516        44.42054         5.70060
     2020.86789        46.55743         5.82563
     2020.87063        55.48932         5.61099
     2020.87337        55.28421         5.58390
     2020.87611        42.72709         5.73706
     2020.87885        51.14998         5.83084
     2020.88158        53.99187         5.76207
     2020.88432        51.02076         5.64641
     2020.88706        37.82865         5.90274
     2020.88980        39.71554         5.67976
     2020.89253        41.22843         5.61515
     2020.89527        49.26032         5.74748
     2020.89801        43.09521         5.76937
     2020.90075        47.11810         5.59015
     2020.90349        44.63499         5.59848
     2020.90622        39.07788         5.60057
     2020.90896        42.39677         5.72769
     2020.91170        41.02765         5.98505
     2020.91444        46.59554         5.66204
     2020.91718        38.92043         5.60161
     2020.91991        33.04032         5.57348
     2020.92265        34.50821         5.58911
     2020.92539        33.09510         5.58911
     2020.92813        31.95699         5.64954
     2020.93086        35.84788         5.65058
     2020.93360        38.16477         5.67871
     2020.93634        35.04866         5.60578
     2020.93908        40.23755         5.59327
     2020.94182        38.91544         5.55889
     2020.94455        34.34133         5.64433
     2020.94729        33.16322         5.76624
     2020.95003        32.16310         5.60161
     2020.95277        30.17199         5.55368
     2020.95551        36.02188         5.63912
     2020.95824        37.60977         5.62349
     2020.96109        27.75682         6.17677
     2020.96372        34.70355         5.57139
     2020.96646        41.64044         5.66100
     2020.96919        49.84433         5.68288
     2020.97193        41.74722         5.55785
     2020.97467        43.44711         5.72664
     2020.97741        29.38000         5.67455
     2020.98015        31.65089         5.81521
     2020.98288        32.72378         5.70060
     2020.98562        32.79166         5.58702
     2020.98836        37.89255         5.64016
     2020.99110        36.17144         5.56618
     2020.99384        35.24633         5.47970
     2020.99657        32.82622         5.53180
     2020.99931        39.15111         5.70581
     2021.00205        39.16100         5.56410
     2021.00479        51.08989         5.48387
     2021.00752        43.95778         5.45157
     2021.01026        34.75367         5.52555
     2021.01300        45.12056         5.53388
     2021.01574        42.64145         5.72664
     2021.01851        37.79738         5.60057
     2021.02125        37.47027         5.64120
     2021.02395        37.85411         5.45782
     2021.02669        36.50800         5.63808
     2021.02943        36.08789         5.54326
     2021.03216        34.05378         5.60057
     2021.03488        42.94364         5.76832
     2021.03764        30.99456         5.61411
     2021.04038        33.09745         5.62453
     2021.04312        32.26034         5.49637
     2021.04585        37.12923         5.54638
     2021.04859        31.13612         5.57243
     2021.05133        32.36101         5.55680
     2021.05404        38.00386         5.82980
     2021.05681        36.74379         5.62036
     2021.05954        30.35367         5.48282
     2021.06230        31.38958         5.57348
     2021.06502        34.75945         5.60994
     2021.06776        39.37734         5.48595
     2021.07049        37.98823         5.53284
     2021.07323        30.64212         5.59848
     2021.07597        26.49501         5.50679
     2021.07871        39.15690         5.59015
     2021.08145        35.42679         5.52138
     2021.08418        35.40668         5.47657
     2021.08692        38.52857         5.48595
     2021.08966        35.59446         5.54430
     2021.09240        29.20035         5.54847
     2021.09514        33.47023         5.67559
     2021.09787        32.05412         5.66725
     2021.10061        36.57201         5.47657
     2021.10335        39.23690         5.47657
     2021.10609        29.84479         5.52659
     2021.10882        31.29268         5.53492
     2021.11156        25.59557         5.52034
     2021.11430        26.09046         5.49741
     2021.11704        29.38035         5.48282
     2021.11978        28.89524         5.51096
     2021.12251        30.55313         5.55472
     2021.12525        32.20302         5.55368
     2021.12799        37.16291         5.58702
     2021.13073        35.19179         5.49324
     2021.13347        29.35768         5.55993
     2021.13620        31.44057         5.61932
     2021.13894        31.81046         5.52971
     2021.14168        32.19635         5.67038
     2021.14442        37.12424         5.58390
     2021.14715        26.64613         5.59432
     2021.14989        27.03602         5.50783
     2021.15263        32.03291         5.67976
     2021.15537        34.47680         5.63704
     2021.15811        34.64669         5.84335
     2021.16084        36.39858         5.60578
     2021.16358        36.09147         5.62870
     2021.16632        37.12236         5.72456
     2021.16906        37.75824         5.80896
     2021.17180        30.62813         5.51304
     2021.17453        31.51002         5.61932
     2021.17727        36.41391         5.67663
     2021.18001        35.22980         5.64120
     2021.18275        27.65969         5.75686
     2021.18548        29.87858         5.47866
     2021.18822        30.97147         5.45469
     2021.19096        33.76236         5.60369
     2021.19370        30.53925         5.54847
     2021.19644        26.99314         5.51825
     2021.19917        31.63203         5.50262
     2021.20191        33.26092         5.49324
     2021.20465        34.95680         5.50366
     2021.20739        32.91169         5.60265
     2021.21013        35.22258         5.69330
     2021.21286        34.47747         5.68392
     2021.21560        36.56136         5.50471
     2021.21834        32.69225         5.60473
     2021.22108        37.11214         5.50471
     2021.22381        26.93603         5.46199
     2021.22655        38.86892         5.57035
     2021.22929        39.66581         5.50158
     2021.23203        36.48770         5.52971
     2021.23477        29.81559         5.50262
     2021.23750        31.52348         5.47032
     2021.24024        34.04936         5.66204
     2021.24298        32.59525         5.48803
     2021.24572        25.73014         5.51096
     2021.24846        29.99103         5.62245
     2021.25119        34.63992         5.52659
     2021.25393        33.33081         5.61411
     2021.25667        33.63470         5.47866
     2021.25941        31.28159         5.54117
     2021.26214        35.32548         5.68809
     2021.26488        38.20037         5.56931
     2021.26762        38.48626         5.62245
     2021.27036        36.29415         5.72977
     2021.27310        36.71404         5.54222
     2021.27583        30.12493         5.49220
     2021.27857        30.96181         5.60473
     2021.28131        27.75570         5.62036
     2021.28405        29.24159         5.64433
     2021.28679        34.07448         5.61099
     2021.28952        35.86337         5.63495
     2021.29226        31.86426         5.61203
     2021.29500        38.27315         5.65162
     2021.29774        32.65604         5.89544
     2021.30047        33.39493         5.70060
     2021.30321        37.99082         5.60994
     2021.30595        42.57571         5.77770
     2021.30869        47.60260         5.79125
     2021.31143        41.80949         5.56097
     2021.31416        50.13637         5.57869
     2021.31690        43.55526         5.52659
     2021.32021        37.99896         7.70846
     2021.32295        35.21085         7.61573
     2021.32569        30.43174         7.39692
     2021.32842        30.70063         7.48548
     2021.33116        48.90752         7.25938
     2021.33390        40.18241         7.17915
     2021.33664        35.85530         7.18227
     2021.33937        37.93219         7.28334
     2021.34211        35.01308         7.24687
     2021.34485        35.30097         7.35524
     2021.34759        32.89986         7.27084
     2021.35033        35.47874         7.49590
     2021.35306        35.50463         7.26459
     2021.35580        33.19552         7.30106
     2021.35854        34.41941         7.28647
     2021.36128        32.43530         7.53029
     2021.36402        31.86919         7.32815
     2021.36653        28.48376         6.57793
     2021.36892        31.20216         5.52763
     2021.37166        30.43805         5.53909
     2021.37440        31.78194         5.53909
     2021.37770        29.77364         7.49590
     2021.38044        36.52253         7.45422
     2021.38318        33.09542         7.79495
     2021.38592        36.15231         7.62302
     2021.38866        31.05519         7.41046
     2021.39214        60.19514        99.22954
     2021.39413        39.65597         7.37399
     2021.39687        39.48986         7.31773
     2021.39938        35.72343         6.58731
     2021.40177        38.26883         5.72560
     2021.40451        37.39772         5.70685
     2021.40782        35.99542         7.48132
     2021.41056        36.48231         7.33857
     2021.41330        38.53920         7.45527
     2021.41603        37.65009         7.33857
     2021.41877        28.57998         7.42192
     2021.42151        51.74887         7.75118
     2021.42425        46.28775         7.46985
     2021.42699        37.99864         7.36357
     2021.42972        42.90153         7.28959
     2021.43246        43.78442         7.36253
     2021.43520        39.29431         7.34378
     2021.43794        35.23820         7.73451
     2021.44068        31.96609         7.50320
     2021.44341        35.63198         7.50007
     2021.44615        31.78687         7.43026
     2021.44889        41.54176         7.42192
     2021.45163        38.38065         7.55113
     2021.45436        38.59354         7.66262
     2021.45710        30.11643         7.59802
     2021.45984        36.25131         7.17289
     2021.46258        33.22020         7.23333
     2021.46527        34.71403         7.46464
     2021.46805        34.15998         7.20207
     2021.47079        31.98787         7.22708
     2021.47353        36.47276         7.44276
     2021.47627        34.83965         7.52716
     2021.47901        31.39854         7.41463
     2021.48174        23.70643         7.39066
     2021.48448        22.05332         7.27501
     2021.48722        31.90921         7.35420
     2021.48996        26.43710         7.26250
     2021.49269        27.65899         7.43859
     2021.49520        38.82755         6.57376
     2021.49817        38.80876         7.70325
     2021.50091        30.37965         7.50007
     2021.50365        35.29054         7.66574
     2021.50638        17.31743         7.48757
     2021.50912        39.10432         7.59489
     2021.51186        18.11221         7.98979
     2021.51460        39.13410         8.04814
     2021.51733        33.85599         7.60323
     2021.52007        39.44488         7.48236
     2021.52281        27.18477         7.43755
     2021.52555        37.70566         7.36878
     2021.52829        33.72255         7.37503
     2021.53102        31.78744         7.38337
     2021.53376        31.71432         7.48653
     2021.53650        30.33721         7.70013
     2021.53924        49.19110         7.78140
     2021.54198        40.47999         7.37087
     2021.54471        37.52088         7.36149
     2021.54745        32.73077         7.41567
     2021.55019        27.83366         7.48132
     2021.55293        35.68355         7.49590
     2021.55566        37.71744         7.44589
     2021.55840        36.67133         7.45006
     2021.56114        36.38022         7.31668
     2021.56388        39.18311         7.33127
     2021.56605        42.26819         5.67455
     2021.56878        37.14907         5.63391
     2021.57152        39.76796         5.74540
     2021.57426        32.47185         5.79958
     2021.57700        39.84774         6.00902
     2021.57974        34.26163         5.65683
     2021.58247        32.16852         5.69955
     2021.58521        34.42241         5.76937
     2021.58795        35.60130         5.73602
     2021.59069        47.37419         5.94025
     2021.59342        36.01708         5.85793
     2021.59616        29.84597         5.91003
     2021.59890        38.00886         5.77145
     2021.60164        45.16375         5.80688
     2021.60438        37.80663         5.60994
     2021.60711        42.03052         5.65267
     2021.60985        43.85141         5.66204
     2021.61259        44.78430         5.71623
     2021.61533        32.49019         5.57869
     2021.61807        40.52308         5.61620
     2021.62080        31.88997         5.71206
     2021.62354        38.25786         5.75478
     2021.62628        40.16675         5.70372
     2021.62902        39.48364         5.69643
     2021.63175        39.64653         5.76103
     2021.63449        39.14342         5.86002
     2021.63723        37.97031         6.03090
     2021.63997        47.04420         5.80375
     2021.64271        41.35808         5.80688
     2021.64544        36.73597         5.64954
     2021.64818        38.45486         5.61411
     2021.65092        36.62575         5.59015
     2021.65366        36.02964         5.72352
     2021.65639        37.25453         5.61828
     2021.65913        38.71442         5.65892
     2021.66187        43.26931         5.70997
     2021.66461        41.12820         5.62453
     2021.66735        43.68609         5.60161
     2021.67008        38.89398         5.70685
     2021.67282        43.14987         5.89857
     2021.67556        41.52976         5.89753
     2021.67830        49.03464         5.83188
     2021.68104        38.87853         5.61307
     2021.68377        45.29142         5.56306
     2021.68651        40.21731         5.63078
     2021.68925        39.59620         5.62974
     2021.69199        42.30009         5.65371
     2021.69472        40.37598         5.65579
     2021.69746        42.03687         5.65892
     2021.70020        43.15176         5.71310
     2021.70294        41.64265         5.73081
     2021.70568        44.69254         5.95171
     2021.70841        46.17243         5.79646
     2021.71115        45.98132         5.79229
     2021.71389        48.66720         5.78083
     2021.71663        46.08809         5.73498
     2021.71937        40.55998         5.82980
     2021.72210        37.63087         5.76520
     2021.72484        36.72776         5.77874
     2021.72758        38.68165         5.72248
     2021.73032        32.27154         5.99756
     2021.73305        42.48243         5.71935
     2021.73579        49.67132         5.85376
     2021.73855        53.16324         5.99756
     2021.74127        44.93910         5.78916
     2021.74401        43.56199         5.73915
     2021.74674        44.65388         5.74227
     2021.74948        42.12377         5.80792
     2021.75222        42.13265         5.84022
     2021.75496        42.83954         5.88398
     2021.75706        42.84853         7.85330
     2021.76043        54.53932         5.90274
     2021.76317        38.83821         5.79437
     2021.76591        40.41010         5.74436
     2021.76865        42.64099         5.80375
     2021.77138        44.37988         5.78083
     2021.77412        42.98677         5.95796
     2021.77686        44.85566         5.75478
     2021.77960        44.90655         5.75999
     2021.78234        47.03444         5.78499
     2021.78507        52.34533         5.72352
     2021.78781        46.41721         5.71414
     2021.79055        46.49710         5.72769
     2021.79329        45.29599         5.76103
     2021.79603        44.66388         5.70685
     2021.79876        42.39577         5.71310
     2021.80150        49.83066         5.80375
     2021.80424        45.59855         5.88815
     2021.80698        49.70744         5.76416
     2021.80971        44.72033         5.86418
     2021.81245        54.32922         5.86627
     2021.81519        54.65411         5.69851
     2021.81793        54.97000         5.72352
     2021.82067        46.88589         6.01527
     2021.82340        47.42477         5.93816
     2021.82614        47.98466         5.80479
     2021.82888        43.65055         5.77562
     2021.83162        45.95244         5.82459
     2021.83436        46.42033         5.82772
     2021.83709        40.94622         5.90899
     2021.83983        45.91011         5.91211
     2021.84257        46.58300         5.90065
     2021.84531        44.53989         5.84439
     2021.84804        52.67978         5.82876
     2021.85078        43.02767         5.82146
     2021.85352        40.93956         5.78187
     2021.85626        47.48245         5.73915
     2021.85900        36.24234         5.69122
     2021.86447        42.54511         6.04028
     2021.86721        48.80700         5.99860
     2021.86995        49.11889         6.05382
     2021.87269        44.00078         5.97463
     2021.87542        41.99667         5.88607
     2021.87816        37.89556         5.76624
     2021.88090        40.24345         5.69851
     2021.88364        35.73934         5.77562
     2021.88637        37.34123         5.78812
     2021.88911        31.49812         5.73394
     2021.89185        35.56001         5.74748
     2021.89459        43.36590         5.74019
     2021.89733        34.87078         5.72977
     2021.90006        36.42267         5.74853
     2021.90280        40.73256         5.67871
     2021.90554        39.09445         5.70997
     2021.90828        52.57434         5.79333
     2021.91102        40.36723         5.73498
     2021.91375        44.16412         5.76103
     2021.91649        48.26501         5.83397
     2021.91923        46.81890         5.83084
     2021.92197        32.97779         6.00068
     2021.92470        36.62168         5.90899
     2021.92744        42.19057         5.87460
     2021.93018        35.97146         5.91003
     2021.93292        45.50834         5.99651
     2021.93566        53.95023         6.09758
     2021.93839        53.14312         5.90482
     2021.94113        48.80501         6.06737
     2021.94387        56.13290         5.88502
     2021.94661        45.75979         5.87565
     2021.94935        47.37368         5.84335
     2021.95208        18.84957         5.89128
     2021.95482        47.86546         5.87460
     2021.95756        48.25635         5.87877
     2021.96030        40.70224         5.84439
     2021.96303        36.45313         5.84543
     2021.96577        37.87002         5.89753
     2021.96851        44.52390         5.89336
     2021.97125        45.81679         5.87252
     2021.97399        48.07568         5.89023
     2021.97672        52.68157         5.84439
     2021.97946        53.61346         5.85793
     2021.98220        52.71935         5.91420
     2021.98494        53.37124         5.84022
     2021.98767        49.66013         5.90378
     2021.99041        50.06102         5.89857
     2021.99315        46.15491         5.89649
     2021.99589        55.54980         5.86002
     2021.99863        45.94269         5.89440
     2022.00136        43.57158         5.89857
     2022.00410        38.79247         5.88294
     2022.00684        15.35935         5.85689
     2022.01505        19.64902         5.86418
     2022.01779        30.32991         5.92253
     2022.01937        21.28215        16.46306
     2022.02345        18.48795         6.69880
     2022.02600        21.51158         5.92358
     2022.02874        25.19247         5.81417
     2022.03148        24.86436         5.86002
     2022.03422        28.68425         5.85689
     2022.03696        28.76214         5.80271
     2022.03969        24.45603         6.20908
     2022.04243        34.11191         5.77249
     2022.04517        37.02680         5.92566
     2022.04791        40.48469         5.79333
     2022.05065        35.24658         5.80792
     2022.05338        39.10947         5.86835
     2022.05612        27.94436         5.80792
     2022.05886        25.49825         5.81938
     2022.06160        27.59814         5.81730
     2022.06433        35.40703         5.84855
     2022.06707        32.06392         5.79958
     2022.06981        39.46981         5.87877
     2022.07255        27.90970         5.69643
     2022.07529        35.37359         5.72873
     2022.07802        36.76347         5.75582
     2022.08076        42.71536         5.73498
     2022.08350        45.77325         5.69226
     2022.08624        39.84214         5.69434
     2022.08898        40.67903         5.68913
     2022.09171        34.68692         5.72248
     2022.09445        32.10081         5.71831
     2022.09719        34.29570         5.68809
     2022.09993        31.97459         5.93400
     2022.10266        37.39448         5.93504
     2022.10540        34.82337         5.68392
     2022.10814        40.04026         5.72664
     2022.11088        39.94215         5.79125
     2022.11362        39.52904         5.69643
     2022.11635        38.13592         5.69539
     2022.11909        36.73681         5.73811
     2022.12183        39.75470         5.74748
     2022.12457        40.13959         5.88502
     2022.12731        38.66548         5.75165
     2022.13004        32.02337         5.69851
     2022.13278        36.56726         5.74436
     2022.13552        39.37715         5.71831
     2022.13826        43.95804         5.78604
     2022.14099        38.32093         5.68392
     2022.14373        25.78582         5.64329
     2022.14647        36.58871         5.74123
     2022.14921        37.01660         5.92462
     2022.15195        32.84748         5.90170
     2022.15468        34.98937         5.70372
     2022.15742        35.91926         5.74748
     2022.16016        44.66115         5.71310
     2022.16290        37.69104         5.74123
     2022.16564        39.80493         5.71935
     2022.16837        40.65382         5.71206
     2022.17111        36.91871         5.72248
     2022.17385        37.65160         5.69226
     2022.17659        38.15649         5.71831
     2022.17932        32.25738         5.70685
     2022.18206        38.70727         5.72144
     2022.18480        31.48716         5.69330
     2022.18754        33.51704         5.73915
     2022.19028        30.06493         5.74019
     2022.19301        37.03482         5.68601
     2022.19575        45.45771         5.71102
     2022.19849        34.16760         5.77979
     2022.20123        41.63749         5.80062
     2022.20397        43.50738         5.64433
     2022.20670        36.06827         5.83397
     2022.20944        38.39116         5.88086
     2022.21218        41.01905         5.76311
     2022.21492        33.81094         5.72769
     2022.21765        33.93383         5.70060
     2022.22039        34.58272         5.70476
     2022.22313        36.90661         5.77666
     2022.22587        24.65249         5.93816
     2022.22861        34.87238         5.78916
     2022.23134        38.06627         5.69434
     2022.23408        39.60016         5.68184
     2022.23682        41.79205         5.93087
     2022.23956        39.28394         5.80062
     2022.24229        35.62082         6.00589
     2022.24452        43.56500         9.47981
     2022.24777        40.64261         9.22244
     2022.25051        38.95650         9.18806
     2022.25325        29.68339        15.24813
     2022.25598        38.85928         5.87044
     2022.25872        48.50417         5.80479
     2022.26146        31.04605         5.71310
     2022.26420        37.30594         5.74019
     2022.26694        35.18983         5.90274
     2022.26967        36.79672         5.79229
     2022.27241        40.24261         5.70581
     2022.27515        42.73050         5.85272
     2022.27789        40.29039         5.66829
     2022.28062        37.84428         5.72664
     2022.28336        39.32717         5.72873
     2022.28610        40.46406         5.84543
     2022.28884        33.62295         5.80583
     2022.29158        34.34784         5.69330
     2022.29431        31.61973         5.71310
     2022.29705        41.99961         5.73811
     2022.29979        42.30650         5.69434
     2022.30253        42.11539         5.81000
     2022.30527        38.58028         5.81313
     2022.30800        31.42717         5.76311
     2022.31074        38.53106         5.71310
     2022.31348        36.65795         5.73498
     2022.31622        36.34084         5.73394
     2022.31895        20.57673         5.90586
     2022.32169        36.11962         5.90378
     2022.32443        35.96251         5.70164
     2022.32717        35.11140         5.72352
     2022.32991        37.36729         5.76207
     2022.33264        31.68618         5.86523
     2022.33538        37.28306         5.94963
     2022.33812        40.79995         5.97776
     2022.34086        39.15484         5.76103
     2022.34360        36.08073         5.66725
     2022.34633        44.00462         5.74436
     2022.34907        37.44351         5.71935
     2022.35181        40.70340         5.67663
     2022.35455        35.84529         5.72352
     2022.35728        34.84118         5.72144
     2022.36002        39.99407         5.74227
     2022.36276        42.76696         5.76103
     2022.36550        36.39785         5.71206
     2022.36824        37.44074         5.68705
     2022.37097        32.95162         5.75478
     2022.37371        27.53151         5.72248
     2022.37645        32.14340         5.81313
     2022.37919        33.96829         5.87565
     2022.38193        29.32218         5.83918
     2022.38386        28.69192         9.03384
     2022.39563        36.79165         5.70164
     2022.39835        33.97252         5.78916
     2022.40109        32.37541         5.91316
     2022.40383        37.06530         5.67663
     2022.40657        40.68518         5.71935
     2022.40930        31.80207         5.79125
     2022.41204        30.68596         5.80583
     2022.41478        34.74185         5.64850
     2022.41752        33.57774         5.82042
     2022.42026        37.85263         5.84960
     2022.42299        39.89552         5.76416
     2022.42573        34.95641         5.75686
     2022.42847        35.49730         5.64016
     2022.43121        34.47819         5.76207
     2022.43394        43.09008         5.86731
     2022.43668        29.74097         5.71310
     2022.43942        35.17786         5.70060
     2022.44216        35.56074         5.92462
     2022.44490        39.69963         5.81417
     2022.44763        45.82352         5.67142
     2022.45037        32.17241         5.66204
     2022.45311        30.19530         5.60890
     2022.45585        33.01319         5.72560
     2022.45859        21.84808         5.70164
     2022.46132        33.85297         5.72039
     2022.46406        33.21386         5.67246
     2022.46680        30.53575         5.68913
     2022.46954        35.63464         5.67350
     2022.47227        25.74753         5.72144
     2022.47501        43.07142         5.78812
     2022.47775        31.39531         5.86627
     2022.48049        33.07719         5.73602
     2022.48323        39.44508         5.67559
     2022.48596        40.89997         5.64641
     2022.48870        41.59586         5.91316
     2022.49144        30.06475         5.69226
     2022.49418        32.73464         5.86939
     2022.49692        34.65253         5.80271
     2022.49965        31.17742         5.83084
     2022.50239        23.23731         5.82459
     2022.50513        33.84020         6.12989
     2022.50787        48.75209         6.06945
     2022.51060        26.06698         5.84230
     2022.51334        27.95987         5.73811
     2022.51608        36.45875         5.74332
     2022.51882        19.57564         5.80271
     2022.52156        29.69753         5.67871
     2022.52429        32.94142         5.74644
     2022.52703        29.52031         5.72873
     2022.52977        41.99420         5.89857
     2022.53251        27.34109         5.81104
     2022.53525        24.49298         5.76103
     2022.53798        20.47687         5.91732
     2022.54072        36.25976         5.78291
     2022.54347        32.75866         5.78604
     2022.54620        30.12954         5.73290
     2022.54893        34.96543         5.77041
     2022.55167        36.76031         5.66413
     2022.55441        41.89020         5.72456
     2022.55715        45.42509         5.79229
     2022.55989        33.19198         5.71831
     2022.56262        29.09687         5.68705
     2022.56536        16.19876         5.67350
     2022.56810        31.39965         5.64641
     2022.57084        35.18354         5.70268
     2022.57357        38.69243         5.88919
     2022.57631        27.50332         5.69330
     2022.57905        29.95021         5.66621
     2022.58179        39.94210         5.83188
     2022.58453        37.76899         5.95275
     2022.58726        31.16788         5.73394
     2022.59000        31.89876         5.79854
     2022.59274        27.81865         5.61724
     2022.59548        33.15054         5.70789
     2022.59822        26.83043         5.61099
     2022.60095        23.25932         5.59223
     2022.60369        29.40121         5.70997
     2022.60643        38.02610         5.70164
     2022.60917        41.79399         6.07675
     2022.61190        37.57588         5.93608
     2022.61464        37.18277         6.06007
     2022.61738        47.98466         5.64120
     2022.62012        32.81355         5.63078
     2022.62286        35.05944         5.60369
     2022.62559        38.72832         5.57973
     2022.62833        37.17021         5.57348
     2022.63107        41.45710         5.60161
     2022.63381        47.46599         5.68080
     2022.63655        40.74988         5.69330
     2022.63928        36.75977         5.65162
     2022.64202        36.56866         6.06007
     2022.64476        42.65055         6.05799
     2022.64750        43.48644         5.79333
     2022.65023        45.42433         5.80792
     2022.65297        50.82022         5.99651
     2022.65571        44.76411         5.67246
     2022.65845        42.81100         5.58702
     2022.66119        42.51788         5.57869
     2022.66392        43.16577         5.65371
     2022.66666        41.28266         5.68392
     2022.66940        42.93555         5.58911
     2022.67214        43.34944         5.62245
     2022.67488        48.69833         5.76624
     2022.67761        47.89922         5.68601
     2022.68035        43.02111         5.56722
     2022.68309        45.12700         5.66308
     2022.68583        40.07489         5.80583
     2022.68856        49.19878         5.73706
     2022.69130        41.76767         5.65267
     2022.69404        40.67456         5.78604
     2022.69678        46.40545         5.74019
     2022.69952        43.42533         5.76832
     2022.70225        52.30122         6.17052
     2022.70499        42.11911         5.77666
     2022.70773        44.00200         5.65371
     2022.71047        43.81789         5.72560
     2022.71321        49.49378         5.67663
     2022.71868        47.08056         5.56618
     2022.72142        48.07545         5.53388
     2022.72416        44.14034         5.77770
     2022.72689        45.46623         5.73498
     2022.72962        46.18110         5.86627
     2022.73238        44.55901         5.58390
     2022.73511        41.71789         5.59015
     2022.73785        44.50478         5.58285
     2022.74058        46.11667         5.79229
     2022.74332        50.91656         5.92253
     2022.74606        43.68745         5.70476
     2022.74880        43.24134         5.60265
