# ================= DQRFIT RESULTS ================
# INPUT FILE: series/P656.rad
# OUTPUT: LDETRENDED
# FILTER FUNCTION: f(t)
# f(t)=+line(t)+annual(t)
# line(t)=+P 1+P 2*t
# annual(t)=+P 3*sin(2*pi*t+P 4)
# heav(t)=(t<0?0:1)
# TOTAL OBSERVATIONS MTOT= 3716
# INITIAL TIME INTERVAL= 2022.7488 - 2007.5702 = 15.1786
# TOTAL OBSERVATIONS AFTER PREFILTER M= 2923
# TIME-SPAN= 2022.7488 - 2007.5702 = 15.1786
# OBSERVATIONS: USED M=  2923 REJECTED MTOT-M=   793 %USED=   78.6599
# N=  4 PARAMETERS
# MAXSIG= 175.00000
# MAXRES= 864.49424
# SCALE FACTOR FOR LENGTHS: SCL=  10.00000
# SCALE FACTOR FOR SIGMAS: SCLSIG=   1.00000
# CHI^2= 269337.177 DOF=  2919 CHI^2/DOF=  92.27036
# RMS=    117.210 SDEV=    115.496 MEAN=   20.08813
#  P #       PARAMETER +-    SIGMA %error PARAMETER NAME
# P 1 =      1422.75281 +-  555.844  39.07 YZERO                              
# P 2 =        -0.71725 +-    0.276  38.41 SLOPE                              
# P 3 =        57.16151 +-    1.689   2.96 ANNUAL AMPLITUDE                   
# P 4 =         0.38210 +-    0.039  10.26 ANNUAL PHASE                       
#       T            LDETRENDED       SIG_OBS
     2007.57015       -50.83153        55.75175
     2007.57289       -58.33257        55.83820
     2007.57563       -51.90561        55.83820
     2007.57837       -53.80864        56.36652
     2007.58110       -47.18268        56.33770
     2007.58384       -47.96871        56.64508
     2007.58658       -58.06275        55.80939
     2007.58932       -53.57779        56.51060
     2007.59206       -45.99782        55.87663
     2007.59479       -44.78786        56.61627
     2007.59753       -49.93190        57.25025
     2007.60027       -50.74793        55.05053
     2007.60301       -46.17697        55.00250
     2007.60574       -46.54000        55.36752
     2007.60848       -49.04604        55.84781
     2007.61122       -41.76308        56.03992
     2007.61396       -50.92611        55.32910
     2007.61670       -52.10815        58.11476
     2007.61943       -49.32219        57.98989
     2007.62217       -47.34622        57.78817
     2007.62491       -49.14526        58.32609
     2007.62765       -50.85230        59.68050
     2007.63039       -37.32233        60.59305
     2007.63312       -58.15037        57.07734
     2007.63586       -52.40340        58.58545
     2007.63860       -50.64944        58.83520
     2007.64134       -47.85648        57.40394
     2007.64407       -42.59451        59.77656
     2007.64681       -50.11355        57.51921
     2007.64955       -44.51759        58.91204
     2007.65229       -45.80762        58.93125
     2007.65503       -44.82966        58.09555
     2007.65776       -46.68369        58.29727
     2007.66050       -42.27273        58.91204
     2007.66324       -43.01777        58.73914
     2007.66598       -52.59680        59.33469
     2007.66872       -44.97484        57.74014
     2007.67145       -46.82788        57.50000
     2007.67419       -45.45391        58.70071
     2007.67693       -39.26595        58.73914
     2007.67967       -46.28098        58.38372
     2007.68240       -47.22302        58.35491
     2007.68514       -43.37406        58.94086
     2007.68788       -43.91309        59.08494
     2007.69062       -40.01013        57.97068
     2007.69336       -42.11817        58.16279
     2007.69609       -48.73820        59.41154
     2007.69883       -43.72824        58.47978
     2007.70157       -45.68427        57.37512
     2007.70431       -36.98631        60.78516
     2007.70705       -43.07235        58.70071
     2007.70978       -42.41738        60.00710
     2007.71252       -46.18142        58.14358
     2007.71526       -43.48146        56.31849
     2007.71800       -48.42249        56.39534
     2007.72073       -42.46553        56.48179
     2007.72347       -37.84756        56.51060
     2007.72621       -40.09160        57.74014
     2007.72895       -44.65064        56.41455
     2007.73169       -44.29967        56.78917
     2007.73442       -42.67071        56.02071
     2007.73716       -44.93875        57.82659
     2007.73990       -42.89478        56.86602
     2007.74264       -37.59982        56.41455
     2007.74538       -40.90086        56.00150
     2007.74811       -40.83289        58.20122
     2007.75085       -37.26093        59.09455
     2007.75359       -40.27696        59.25785
     2007.75633       -41.03800        55.92465
     2007.75906       -47.02104        56.04953
     2007.76180       -35.13407        57.31749
     2007.76454       -50.34211        56.52021
     2007.76728       -40.98815        60.80437
     2007.77002       -40.69018        60.39133
     2007.77275       -45.94422        59.07534
     2007.77549       -48.26825        57.10616
     2007.77823       -49.12629        56.95247
     2007.78097       -39.61633        56.18401
     2007.78371       -44.30336        56.03992
     2007.78644       -35.01940        56.67390
     2007.78918       -44.11044        56.80838
     2007.79192       -53.27747        59.41154
     2007.79466       -42.62651        61.48638
     2007.79739       -35.26654        58.93125
     2007.80013       -47.52858        56.08795
     2007.80287       -53.49762        57.05813
     2007.80561       -51.09265        56.97168
     2007.80835       -51.18269        57.66329
     2007.81108       -45.84173        57.42315
     2007.81382       -42.56476        56.61627
     2007.81656       -51.16880        58.17240
     2007.81930       -47.51783        57.21182
     2007.82203       -49.28487        58.21082
     2007.82477       -46.66691        57.70172
     2007.82751       -47.71494        57.35591
     2007.83025       -51.72798        58.22043
     2007.83299       -49.57102        55.94387
     2007.83572       -48.01305        56.29928
     2007.83846       -49.70709        56.73154
     2007.84120       -46.23312        55.22343
     2007.84394       -52.76216        55.38673
     2007.84668       -56.05720        56.30888
     2007.84941       -50.85323        55.92465
     2007.85215       -45.30727        57.52881
     2007.85489       -51.53331        56.64508
     2007.85763       -47.36734        55.73254
     2007.86036       -43.48338        57.03892
     2007.86310       -45.30242        56.15519
     2007.86584       -39.42445        58.78717
     2007.86858       -52.99149        56.75075
     2007.87132       -47.27952        56.78917
     2007.87405       -39.94756        56.66430
     2007.87679       -39.76260        57.11577
     2007.87953       -39.27763        57.99950
     2007.88227       -43.59067        57.93225
     2007.88501       -52.98771        56.00150
     2007.88774       -51.20374        55.75175
     2007.89048       -52.19878        56.64508
     2007.89322       -52.97781        56.85641
     2007.89596       -48.70785        57.34630
     2007.89869       -51.57689        56.33770
     2007.90143       -53.26592        56.40494
     2007.90417       -54.01096        57.26946
     2007.90691       -56.72400        56.48179
     2007.90965       -51.46003        57.38473
     2007.91238       -51.71907        56.40494
     2007.91512       -51.53610        56.38573
     2007.91786       -47.88614        56.63548
     2007.92060       -41.10618        60.66989
     2007.92334       -54.03721        63.30187
     2007.92607       -46.44225        59.15218
     2007.92881       -50.26429        57.91304
     2007.93155       -42.89932        60.13197
     2007.93429       -54.18636        58.95046
     2007.93702       -50.75839        58.77756
     2007.93976       -58.64743        58.22043
     2007.94250       -52.33147        58.22043
     2007.94524       -48.74450        60.22803
     2007.94798       -50.28954        59.43075
     2007.95071       -49.59758        58.50860
     2007.95345       -51.80661        58.75835
     2007.95619       -50.46965        58.62387
     2007.95893       -46.84169        60.25685
     2007.96167       -40.61972        60.75634
     2007.96440       -44.07176        60.51620
     2007.96714       -28.80979        63.24423
     2007.96988       -30.57483        61.57283
     2007.97262       -23.65187        60.10315
     2007.97535       -28.13990        59.35391
     2007.97809       -25.30694        59.51720
     2007.98083       -22.27298        57.42315
     2007.98357       -18.38601        56.01111
     2007.98631       -27.28505        57.81699
     2007.98904       -20.26308        58.71032
     2007.99178       -18.29312        58.43175
     2007.99368       -13.57876        93.77129
     2008.50627       -47.71710        63.67649
     2009.55509       -46.37184        59.18100
     2009.55783       -41.78187        58.23964
     2009.56057       -47.16191        60.20882
     2009.56331       -46.43895        60.23763
     2009.56605       -54.19598        61.50559
     2009.56878       -50.79402        59.51720
     2009.57152       -42.64905        60.11276
     2009.57426       -48.07509        59.70932
     2009.57700       -44.55013        64.02230
     2009.57974       -48.17416        59.02731
     2009.58247       -46.66920        59.68050
     2009.58521       -46.79124        60.82358
     2009.58795       -56.43427        60.76595
     2009.59069       -49.00831        59.07534
     2009.59342       -52.63134        60.32409
     2009.59616       -48.41938        58.00910
     2009.59890       -54.95742        59.60365
     2009.60164       -54.90845        59.22903
     2009.60438       -52.85449        58.84480
     2009.60711       -57.41353        60.27606
     2009.60985       -48.84256        60.14158
     2009.61259       -44.30160        59.49799
     2009.61533       -52.27664        60.72753
     2009.61807       -50.41067        60.38172
     2009.62080       -44.95171        59.73814
     2009.62354       -51.25374        60.11276
     2009.62628       -49.68978        59.57484
     2009.62902       -50.51382        59.60365
     2009.63175       -48.73685        59.75735
     2009.63449       -51.13189        60.09355
     2009.63723       -53.85693        59.85340
     2009.63997       -49.45396        61.27505
     2009.64271       -47.81800        60.37211
     2009.64544       -46.88503        60.05512
     2009.64818       -47.23907        59.77656
     2009.65092       -49.81811        59.87262
     2009.65366       -52.83014        59.66129
     2009.65639       -59.22018        60.05512
     2009.65913       -52.05122        59.02731
     2009.66187       -46.33225        58.90244
     2009.66461       -53.53429        59.93025
     2009.66735       -45.72132        58.94086
     2009.67008       -42.77436        59.66129
     2009.67282       -48.85040        58.82559
     2009.67556       -49.67543        59.17140
     2009.67830       -45.82547        60.66989
     2009.68104       -43.97851        60.95806
     2009.68377       -59.76354        59.59405
     2009.68651       -43.59158        59.35391
     2009.68925       -45.73461        59.44996
     2009.69199       -50.59865        59.04652
     2009.69472       -48.77969        59.65168
     2009.69746       -38.75572        58.48939
     2009.70020       -38.72376        59.83419
     2009.70294       -45.96380        59.63247
     2009.70568       -48.72583        59.02731
     2009.70841       -45.37287        59.55563
     2009.71115       -44.55391        59.29627
     2009.71389       -47.78094        61.77455
     2009.71663       -48.18498        59.24824
     2009.71937       -43.06601        59.01770
     2009.72210       -53.87105        59.84380
     2009.72484       -46.83309        60.18961
     2009.72758       -48.12012        59.94946
     2009.73032       -46.59216        59.40193
     2009.73305       -43.74320        60.50659
     2009.73579       -46.01023        58.92165
     2009.73853       -38.72727        58.85441
     2009.74127       -40.39030        60.09355
     2009.74401       -33.16434        61.64968
     2009.74674       -44.25338        58.76795
     2009.74948       -45.65241        59.46917
     2009.75222       -50.82545        58.87362
     2009.75496       -39.31949        58.46057
     2009.75770       -41.43752        58.21082
     2009.76043       -45.29556        59.62287
     2009.76317       -47.09059        58.52781
     2009.76591       -43.98063        59.39233
     2009.76865       -46.35167        59.27706
     2009.77138       -44.91170        58.54702
     2009.77412       -47.77674        58.35491
     2009.77686       -43.74978        58.28767
     2009.77960       -46.25481        58.67190
     2009.78234       -44.20885        60.49699
     2009.78507       -30.27188        62.84079
     2009.78781       -49.41692        63.47477
     2009.79055       -52.01096        60.59305
     2009.79329       -47.24799        61.53441
     2009.79603       -55.99103        61.02531
     2009.79876       -45.85607        60.65068
     2009.80150       -49.60310        61.61126
     2009.80424       -48.68814        60.73713
     2009.80698       -41.79017        60.55462
     2009.80971       -39.79321        63.08093
     2009.81245       -39.75525        61.05412
     2009.81519       -34.77928        60.63147
     2009.81793       -45.20132        60.68910
     2009.82067       -52.44436        59.99749
     2009.82340       -44.96439        60.13197
     2009.82614       -53.10343        60.95806
     2009.82888       -52.77247        59.99749
     2009.83162       -37.95950        59.68050
     2009.83436       -45.28254        59.36351
     2009.83709       -43.04157        60.84280
     2009.83983       -43.77461        60.66989
     2009.84257       -41.79565        61.09255
     2009.84531       -46.96168        61.51520
     2009.84804       -36.22972        64.75233
     2009.85078       -43.62076        61.80337
     2009.85352       -40.94679        61.61126
     2009.85626       -45.22283        61.92825
     2009.85900       -51.47086        62.65828
     2009.86173       -50.48490        60.74674
     2009.86447       -48.16394        62.76395
     2009.86721       -47.54397        61.39993
     2009.86995       -41.41201        60.42975
     2009.87269       -46.23905        61.31348
     2009.87542       -50.68108        61.90903
     2009.87816       -30.30512        62.09154
     2009.88090       -48.11315        61.86101
     2009.88364       -43.14619        60.90043
     2009.88637       -42.67023        60.18961
     2009.88911       -46.37126        61.42875
     2009.89185       -43.78230        61.26545
     2009.89459       -35.82034        61.08294
     2009.89733       -52.12637        61.83219
     2009.90006       -49.48741        60.84280
     2009.90280       -48.60444        61.39993
     2009.90554       -48.91748        61.96667
     2009.90828       -51.65752        58.82559
     2009.91102       -45.54255        60.60265
     2009.91375       -44.72059        60.79477
     2009.91649       -46.51363        61.37111
     2009.91923       -51.29466        59.36351
     2009.92197       -59.43070        59.72853
     2009.92470       -49.55273        59.92064
     2009.92744       -53.25177        59.26745
     2009.93018       -48.51481        57.96107
     2009.93292       -50.77784        58.08595
     2009.93566       -52.59788        57.33670
     2009.93839       -49.50092        59.96867
     2009.94113       -42.60395        59.01770
     2009.94387       -50.39399        60.66029
     2009.94661       -52.40903        61.93785
     2009.94935       -47.55006        60.57384
     2009.95208       -50.03910        60.54502
     2009.95482       -49.55613        62.58144
     2009.95756       -56.38717        63.77255
     2009.96030       -56.42021        64.66588
     2009.96303       -56.59224        64.52180
     2009.96577       -56.20028        62.00509
     2009.96851       -56.33132        61.77455
     2009.97125       -44.16235        62.81197
     2009.97399       -43.68239        65.68409
     2009.97672       -59.37742        59.93986
     2009.97946       -61.33646        59.91104
     2009.98220       -58.76850        59.83419
     2009.98494       -55.49353        60.43935
     2009.98767       -50.67657        58.73914
     2009.99041       -54.75961        57.44236
     2009.99315       -60.03664        58.23003
     2009.99589       -52.01868        58.04752
     2009.99863       -46.88171        59.80538
     2010.00410       -55.18179        60.40093
     2010.00684       -52.88882        59.12337
     2010.00958       -59.07386        58.50860
     2010.01232       -57.12390        58.31648
     2010.01505       -58.91593        59.43075
     2010.01779       -54.67497        59.43075
     2010.02053       -58.20900        58.40294
     2010.02327       -58.89004        59.53641
     2010.02600       -58.86108        58.97928
     2010.02874       -50.65111        59.65168
     2010.03148       -31.78515        60.66029
     2010.10540       294.18487        82.82074
     2010.10814       323.83683        79.31465
     2010.11088       314.83180        82.53257
     2010.11362       342.44376        79.40110
     2010.12731       318.34258        87.31623
     2010.13004       308.53654        83.70447
     2010.13278       328.29951        83.15694
     2010.13552       307.16847        79.90060
     2010.13826       288.59744        79.02647
     2010.14099       287.57240        76.57701
     2010.14373       280.63236        79.67966
     2010.14647       257.79033        75.21299
     2010.14921       273.14829        78.79594
     2010.15195       277.94725        79.91020
     2010.15468       311.63222        77.85457
     2010.15742       356.96918        79.87178
     2010.16016       340.23714        78.10432
     2010.16290       322.43511        80.85157
     2010.16564       298.89407        80.15035
     2010.16837       324.44704        84.48254
     2010.17111       353.68600        82.01386
     2010.17385       335.59096        80.52497
     2010.17659       333.65093        83.02246
     2010.17932       322.65089        83.51236
     2010.18480       339.10082        79.50676
     2010.18754       334.52378        77.91221
     2010.19028       332.48475        77.13414
     2010.19301       305.29571        78.62303
     2010.19575       355.85967        86.51896
     2010.20397       266.72556       110.20673
     2010.20670       271.93353       103.00242
     2010.20944       288.69649       105.18292
     2010.21176       355.06715       120.78265
     2010.68583       -30.11882        55.86702
     2010.68856       -41.39586        55.11777
     2010.69130       -33.80889        55.90544
     2010.69404       -36.56693        56.00150
     2010.69678       -43.45297        55.18501
     2010.69952       -36.10000        56.75075
     2010.70225       -40.06004        55.34831
     2010.70499       -35.13208        54.88723
     2010.70773       -36.19611        55.30028
     2010.71047       -31.13515        56.33770
     2010.71321       -33.30118        56.76996
     2010.71594       -32.37622        57.67290
     2010.71868       -29.70226        55.16580
     2010.72142       -33.40429        56.53942
     2010.72416       -26.24433        57.76896
     2010.72689       -38.45037        57.65369
     2010.72963       -32.83840        56.23204
     2010.73237       -32.15744        55.04093
     2010.73511       -35.26947        54.95447
     2010.73785       -36.33151        57.68251
     2010.74058       -33.86455        57.07734
     2010.74332       -34.79358        55.66530
     2010.74606       -32.56562        56.33770
     2010.74880       -43.13466        55.90544
     2010.75154       -40.02269        55.90544
     2010.75427       -41.55873        56.85641
     2010.75701       -46.24076        56.89483
     2010.75975       -48.03980        56.70272
     2010.76249       -44.37084        56.37612
     2010.76522       -53.04887        56.57784
     2010.76796       -40.99191        57.13498
     2010.77070       -51.19495        56.70272
     2010.77344       -49.45398        56.81799
     2010.77618       -47.74702        55.65569
     2010.77891       -45.46705        56.12637
     2010.78165       -41.36809        55.86702
     2010.78439       -41.25013        56.52982
     2010.78713       -36.02316        57.37512
     2010.78987       -42.52020        56.07835
     2010.79260       -41.87524        55.59806
     2010.79534       -45.79927        55.53082
     2010.79808       -45.25531        55.61727
     2010.80082       -41.37134        55.48279
     2010.80355       -40.24138        55.98229
     2010.80629       -45.33442        57.09655
     2010.80903       -48.45145        56.73154
     2010.81177       -41.65849        60.46817
     2010.81451       -42.33553        56.30888
     2010.81724       -39.45256        55.93426
     2010.81998       -40.12460        56.88523
     2010.82272       -38.84964        56.95247
     2010.82546       -39.14067        60.38172
     2010.82820       -47.98271        59.09455
     2010.83093       -67.88074        62.84079
     2010.83367       -58.48278        62.47577
     2010.83641       -53.79382        56.45297
     2010.83915       -53.66785        55.61727
     2010.84188       -49.74989        56.03992
     2010.84462       -42.57293        56.29928
     2010.84736       -33.59096        56.40494
     2010.90759        36.48824        61.15018
     2010.91033        24.17620        59.17140
     2010.92676        20.72799        69.25743
     2010.92950        63.68895        70.06431
     2010.93223        65.51591        70.63105
     2010.93497        98.02688        68.48897
     2010.93771        95.68384        69.06531
     2010.94045       104.17380        67.96065
     2010.94318        93.70377        68.60424
     2010.94592       108.16873        63.14818
     2013.87123       -78.49510      3420.18174
     2013.87269       -31.07805        55.55964
     2013.87542       -33.83809        56.24164
     2013.87816       -37.33712        54.32049
     2013.88090       -37.41216        55.43476
     2013.88364       -35.30720        59.95907
     2013.88637       -54.25523        58.25885
     2013.88911       -55.41927        56.66430
     2013.89185       -46.82231        55.62688
     2013.89459       -47.93734        56.34731
     2013.89733       -43.39538        54.28207
     2013.90006       -45.55742        56.81799
     2013.90280       -41.97345        56.07835
     2013.90554       -45.85649        56.25125
     2013.90828       -38.58152        55.52121
     2013.91102       -42.35956        55.44437
     2013.91375       -49.89560        56.03032
     2013.91649       -40.45163        54.75275
     2013.91923       -36.94867        55.57885
     2013.92197       -39.25171        55.69412
     2013.92470       -43.90974        53.88824
     2013.92744       -43.25378        55.33870
     2013.93018       -38.66381        53.78257
     2013.93292       -37.86385        53.61927
     2013.93566       -40.67289        53.60006
     2013.93839       -43.99392        53.94587
     2013.94113       -38.57696        54.20523
     2013.94387       -45.32100        55.18501
     2013.94661       -41.05303        55.16580
     2013.94935       -39.21807        54.31089
     2013.95208       -39.95910        56.76996
     2013.95482       -41.09614        56.56824
     2013.95756       -42.77318        55.04093
     2013.96030       -41.27221        56.44336
     2013.96303       -39.40225        55.92465
     2013.96577       -36.53829        55.88623
     2013.96851       -47.80732        55.58845
     2013.97125       -47.26436        55.49240
     2013.97399       -41.30039        57.52881
     2013.97672       -45.00543        54.45497
     2013.97946       -39.52447        54.92566
     2013.98220       -42.53050        57.30788
     2013.98494       -44.43354        54.83920
     2013.98767       -46.25958        55.08895
     2013.99041       -44.32261        56.41455
     2013.99315       -51.14165        55.61727
     2013.99589       -43.06869        55.18501
     2013.99863       -47.60772        56.35691
     2014.00410       -48.32879        55.27146
     2014.00684       -40.73883        54.97369
     2014.00958       -45.43987        54.12838
     2014.01232       -48.90190        57.26946
     2014.01505       -45.96594        54.54143
     2014.01779       -52.16498        56.40494
     2014.02053       -42.99901        55.28107
     2014.02327       -44.40305        56.64508
     2014.02600       -44.95308        58.30688
     2014.02874       -30.07612        54.99290
     2014.03148       -34.69916        54.06114
     2014.03422       -44.53519        55.06014
     2014.03696       -46.75923        54.73354
     2014.03969       -42.50527        55.09856
     2014.04243       -40.85330        57.23104
     2014.04517       -37.61734        56.63548
     2014.04791       -42.89737        55.03132
     2014.05065       -39.08041        56.00150
     2014.05338       -42.40445        55.12738
     2014.05612       -44.27848        55.76136
     2014.05886       -47.60152        55.04093
     2014.06160       -38.88856        54.23404
     2014.06433       -36.73259        56.64508
     2014.06707       -41.67263        55.97268
     2014.06981       -36.87066        55.81899
     2014.07255       -39.28270        54.81039
     2014.07529       -51.16574        55.06974
     2014.07802       -36.93577        57.11577
     2014.08076       -38.70181        56.76996
     2014.08350       -45.27385        55.62688
     2014.08624       -44.44488        56.12637
     2014.08898       -43.79192        57.31749
     2014.09171       -40.51695        56.12637
     2014.09445       -43.27199        55.01211
     2014.09719       -43.21203        56.22243
     2014.09993       -38.04506        55.30028
     2014.10266       -25.17510        56.94286
     2014.10540       -15.02714        59.82459
     2014.10814       -29.39617        60.24724
     2014.11088       -45.22521        63.66689
     2014.11362       -44.49725        61.81298
     2014.11635       -33.82328        60.20882
     2014.11909       -39.86532        61.82258
     2014.12183       -39.46035        62.23563
     2014.12457       -29.48139        59.41154
     2014.12731       -42.68243        57.20222
     2014.13004       -37.48546        57.59605
     2014.13278       -28.90750        61.16939
     2014.13552       -41.03954        58.50860
     2014.13826       -48.53057        56.32810
     2014.14099       -44.82261        58.04752
     2014.14373       -40.40164        58.70071
     2014.14647       -38.54668        59.90143
     2014.14921       -42.24972        58.07634
     2014.15195       -39.90775        58.21082
     2014.15468       -33.79179        58.24924
     2014.15742       -35.94683        57.04853
     2014.16016       -48.69686        62.35090
     2014.16290       -48.70390        61.94746
     2014.16564       -13.34893        61.90903
     2014.18754        51.29478        59.14258
     2014.19028        94.00574        57.62487
     2014.19301        95.31670        56.94286
     2014.19575        85.24767        57.09655
     2014.19849        81.36063        59.20982
     2014.20123        66.81559        57.55763
     2014.20397        72.90256        57.88423
     2014.20670       100.64752        61.85140
     2014.20944        70.19748        59.43075
     2014.21218        74.52145        59.38272
     2014.21492        73.83341        59.64208
     2014.21765        83.92938        57.95147
     2014.22039       100.53634        61.26545
     2014.22313       100.00030        59.87262
     2014.22587        39.44427        60.70832
     2014.23956        62.89309        61.45756
     2014.24230        66.00505        61.88982
     2014.24503        80.37501        60.07434
     2014.24777        99.19598        64.02230
     2014.25051        93.12794        61.68810
     2014.25325        89.25890        59.05613
     2014.25598       102.16587        62.86961
     2014.25872        98.25283        61.01570
     2014.26146       105.09780        63.72452
     2014.26420        99.25476        59.73814
     2014.26694       104.73072        60.92925
     2014.26967       115.87769        60.26645
     2014.27241       125.22165        64.68509
     2014.27515       117.34561        63.31147
     2014.27789        95.17358        60.92925
     2014.28062        60.01954        60.75634
     2014.28610        84.64047        59.69011
     2014.28884        82.33243        60.97728
     2014.29158       113.61440        60.08394
     2014.29431       118.61436        59.65168
     2014.29705       122.86232        60.89082
     2014.29979        74.28429        57.70172
     2014.30253        87.90325        56.41455
     2014.30527        89.03522        56.76996
     2014.30800        63.95518        56.33770
     2014.31074        89.52314        57.54803
     2014.31348        81.72911        56.44336
     2014.31622        94.98507        56.86602
     2014.31895        97.74303        55.67490
     2014.32169        80.85500        57.82659
     2014.32443       104.49596        59.90143
     2014.32991        99.13189        59.36351
     2014.34633       -43.27433        55.17541
     2014.34907       -45.01837        58.27806
     2014.35181       -39.41040        57.45197
     2014.35455       -47.23744        55.22343
     2014.35728       -52.00447        55.97268
     2014.36002       -58.67451        56.24164
     2014.36276       -51.52755        56.35691
     2014.36550       -49.45058        57.02931
     2014.36824       -42.95162        58.02831
     2014.37097       -41.27766        59.07534
     2014.37371       -49.48369        57.21182
     2014.37588       -54.59313        76.53859
     2014.57737       -75.05162       457.78552
     2014.57905       -42.76041        57.08695
     2014.58179       -35.72745        57.32709
     2014.58453       -35.53849        57.64408
     2014.58726       -41.79852        58.93125
     2014.59000       -37.84856        58.43175
     2014.59274       -42.58159        60.62186
     2014.59548       -36.97363        57.71132
     2014.59822       -33.06667        59.31548
     2014.60095       -34.30570        58.99849
     2014.60369       -38.49474        56.78917
     2014.60643       -42.10878        57.76896
     2014.60917       -37.31381        57.04853
     2014.61190       -32.65785        58.06674
     2014.61464       -32.20288        58.25885
     2014.61738       -40.38692        59.09455
     2014.62012       -38.73296        60.13197
     2014.62286       -35.11299        57.01971
     2014.62559       -36.54803        56.71233
     2014.62833       -33.34907        59.25785
     2014.63107       -35.45110        58.75835
     2014.63381       -33.57014        59.13297
     2014.63655       -42.47517        58.65269
     2014.63928       -40.06321        56.52982
     2014.64202       -35.66125        56.07835
     2014.64476       -39.43428        56.90444
     2014.64750       -31.06532        58.08595
     2014.65023       -41.67836        58.14358
     2014.65297       -32.58539        56.02071
     2014.65571       -33.73543        55.40594
     2014.65845       -32.05047        56.04953
     2014.66119       -37.10450        55.55964
     2014.66392       -35.17154        56.62587
     2014.66666       -26.98957        56.21283
     2014.66940       -35.98261        54.74315
     2014.67214       -36.92665        55.26186
     2014.67488       -37.20068        56.06874
     2014.67761       -39.96272        55.49240
     2014.68035       -35.85876        56.07835
     2014.68309       -45.07779        55.53082
     2014.68583       -37.45883        55.76136
     2014.68856       -35.91986        56.62587
     2014.69130       -31.59390        56.22243
     2014.69404       -36.63194        55.17541
     2014.69678       -42.03997        56.76035
     2014.69952       -36.48201        55.00250
     2014.70225       -32.46405        55.08895
     2014.70499       -33.61908        55.68451
     2014.70773       -29.06512        56.24164
     2014.71047       -29.29915        57.09655
     2014.71321       -33.97719        56.28967
     2014.71594       -38.19023        55.28107
     2014.71868       -35.83826        54.98329
     2014.72142       -35.05930        55.34831
     2014.72416       -38.55334        56.03992
     2014.72689       -28.89937        56.30888
     2014.72963       -31.48341        55.81899
     2014.73237       -39.21844        55.78057
     2014.73511       -35.73348        55.78057
     2014.73785       -26.27152        55.46358
     2014.74058       -30.56355        57.76896
     2014.74332       -43.04859        56.77957
     2014.74606       -41.01463        54.70472
     2014.74880       -39.72766        55.07935
     2014.75154       -30.06370        57.75935
     2014.75427       -34.66373        55.10817
     2014.75701       -40.17677        56.25125
     2014.75975       -35.90581        55.61727
     2014.76249       -37.64984        55.80939
     2014.76522       -35.76088        55.98229
     2014.76796       -37.19392        56.52982
     2014.77070       -37.65195        55.76136
     2014.77344       -39.38899        55.16580
     2014.77618       -36.87803        55.53082
     2014.77891       -37.01106        56.05913
     2014.78165       -35.08210        55.74214
     2014.78439       -25.15813        55.39634
     2014.78713       -22.58517        56.15519
     2014.78987       -42.85421        55.16580
     2014.79260       -36.01524        55.49240
     2014.79534       -38.66628        55.91505
     2014.79808       -31.68332        56.45297
     2014.80082       -26.46935        55.31949
     2014.80355       -41.08239        55.98229
     2014.80629       -40.32842        56.27046
     2014.80903       -33.28846        56.30888
     2014.81177       -34.03950        55.76136
     2014.81451       -27.06553        56.06874
     2014.81724       -33.44657        54.55103
     2014.81998       -33.57061        54.14759
     2014.82272       -33.00064        56.32810
     2014.82546       -31.82668        57.32709
     2014.82820       -35.34071        55.10817
     2014.83093       -35.85775        56.83720
     2014.83367       -32.54379        55.67490
     2014.83641       -46.97782        55.98229
     2014.83915       -33.02586        56.73154
     2014.84188       -46.86590        55.79017
     2014.84462       -43.04393        55.94387
     2014.84736       -28.21897        56.26086
     2014.85010       -41.64800        56.23204
     2014.85284       -37.23204        56.20322
     2014.85557       -33.32408        56.13598
     2014.85831       -33.18411        56.13598
     2014.86105       -34.84215        55.81899
     2014.86379       -37.26319        55.69412
     2014.86653       -36.48322        56.61627
     2014.86926       -39.36426        57.15419
     2014.94318       -13.82524        62.77355
     2014.94592        42.13973        59.05613
     2014.94866        34.00869        58.44136
     2014.95140        29.90065        56.34731
     2014.95414        40.81962        57.20222
     2014.95687        53.55358        58.33570
     2014.95961        81.86354        59.20982
     2014.96235        80.03251        60.18000
     2014.98425        72.25722        55.20422
     2014.98699        67.50718        56.54903
     2014.98973        64.49914        54.94487
     2014.99247        67.91211        54.57024
     2014.99520        70.75107        54.57024
     2014.99794        78.78604        54.64709
     2015.00068        71.95900        54.53182
     2015.00342        64.47296        53.94587
     2015.00616        51.86593        53.84021
     2015.00889        55.25489        55.32910
     2015.01163        53.15185        55.79017
     2015.01437        42.14482        55.44437
     2015.01711        43.38178        56.05913
     2015.01984        48.58975        56.95247
     2015.02258        44.23071        57.89383
     2015.02532        40.70767        55.82860
     2015.02806        37.13864        56.22243
     2015.03080        33.14360        55.47318
     2015.03353        28.69556        55.88623
     2015.04722       134.79538        61.60165
     2015.07460       106.79002        55.61727
     2015.07734       117.63698        55.77096
     2015.08008       133.28695        57.69211
     2015.08282       136.39291        58.53742
     2015.08555       120.83488        56.48179
     2015.08829       113.62384        61.91864
     2015.09924       112.48469        58.52781
     2015.10198       151.88666        69.00768
     2015.10472       167.73562        74.31005
     2015.11019       183.03155        66.16438
     2015.11293       173.70051        63.92624
     2015.11567       173.91948        60.95806
     2015.11841       180.71644        59.34430
     2015.12115       175.36140        59.93025
     2015.12388       173.23337        58.23964
     2015.12662       181.80633        57.87462
     2015.12936       159.70229        59.17140
     2015.13210       156.86626        61.22703
     2015.13483       156.41622        61.14057
     2015.13757       181.90619        59.35391
     2015.14031       172.08415        58.60466
     2015.14305       168.99411        56.51060
     2015.14579       160.48608        56.18401
     2015.14852       150.85004        55.81899
     2015.15126       173.65800        57.54803
     2015.15400       162.21597        57.54803
     2015.15674       171.91793        55.82860
     2015.15948       169.83790        55.10817
     2015.16221       163.09386        55.45397
     2015.16495       155.69782        55.08895
     2015.16769       152.81579        55.24265
     2015.17043       150.49975        55.98229
     2015.17316       149.35471        57.32709
     2015.17590       149.69468        61.26545
     2015.17864       161.35564        59.54602
     2015.18138       174.97361        61.47678
     2015.18412       159.15657        60.97728
     2015.18685       153.48853        59.95907
     2015.18959       132.97350        57.95147
     2015.19233       131.00746        63.04251
     2015.19507       132.51842        58.94086
     2015.19780       130.59839        64.85800
     2015.21423       102.56017        63.06172
     2015.24161        75.06781        63.06172
     2015.24435        61.08377        62.85040
     2015.24709        45.39773        59.27706
     2015.24982        46.74370        56.57784
     2015.25256        50.58666        58.45097
     2015.25530        56.28863        58.33570
     2015.25804        42.30359        56.82759
     2015.26078        54.17355        55.48279
     2015.26351        65.53052        58.95046
     2015.26625        72.82748        60.84280
     2015.26899        77.28744        63.78215
     2015.27173        74.56841        64.84839
     2015.27446        94.43637        62.96567
     2015.27720        77.71334        62.21642
     2015.27994        96.10630        66.83678
     2015.28268        67.82926        62.57183
     2015.28542        75.62923        61.56323
     2015.28815        83.89219        63.91663
     2015.29089        84.20915        62.81197
     2015.29363        67.24612        63.84939
     2015.36481       -40.20383        54.85842
     2015.36755       -37.95886        54.47419
     2015.37029       -35.66390        54.83920
     2015.37303       -47.99993        56.23204
     2015.37577       -50.77197        54.81999
     2015.37850       -45.51301        56.53942
     2015.38124       -42.33504        55.15619
     2015.38398       -40.29508        55.43476
     2015.38672       -41.30312        55.34831
     2015.38945       -48.43915        54.56064
     2015.39219       -41.67619        54.52222
     2015.39493       -40.33922        54.72394
     2015.39767       -44.88226        55.12738
     2015.40041       -43.77530        55.79978
     2015.40314       -39.81933        56.16480
     2015.40588       -48.31637        54.95447
     2015.40862       -42.65441        54.04193
     2015.41136       -34.92444        55.31949
     2015.41410       -38.53848        55.17541
     2015.41683       -45.00552        56.20322
     2015.41957       -42.12555        54.63748
     2015.42231       -38.10059        53.95548
     2015.42505       -44.28462        56.28007
     2015.42778       -43.93766        56.73154
     2015.43052       -38.99770        55.53082
     2015.43326       -44.06573        55.11777
     2015.43600       -43.82277        56.02071
     2015.43874       -33.84381        55.42516
     2015.44147       -42.59984        57.72093
     2015.44421       -41.63788        55.53082
     2015.44695       -38.41891        55.95347
     2015.44969       -39.63495        54.11877
     2015.45243       -35.28699        56.74114
     2015.45516       -38.78502        55.98229
     2015.45790       -42.38306        57.23104
     2015.46064       -35.89910        57.88423
     2015.46338       -42.65613        56.98129
     2015.46611       -37.21117        54.83920
     2015.46885       -30.07820        55.67490
     2015.47159       -38.42524        55.30989
     2015.47433       -42.63028        57.19261
     2015.47707       -42.95731        56.66430
     2015.47980       -33.51535        56.15519
     2015.48254       -34.55339        56.14559
     2015.48528       -41.51242        55.58845
     2015.48802       -41.92946        55.48279
     2015.49076       -43.43449        55.66530
     2015.49349       -37.97653        57.60566
     2015.49623       -35.77357        56.73154
     2015.49897       -40.66660        56.27046
     2015.50171       -36.28664        54.70472
     2015.50444       -34.72668        57.21182
     2015.50718       -38.35971        56.67390
     2015.50992       -38.52975        56.41455
     2015.51266       -32.75478        55.41555
     2015.51540       -33.53582        56.18401
     2015.51813       -34.26486        55.34831
     2015.52087       -30.31489        55.92465
     2015.52361       -37.28593        57.25985
     2015.52635       -39.93897        57.02931
     2015.52908       -35.54700        55.02171
     2015.53182       -37.60904        55.01211
     2015.53456       -28.55508        55.85741
     2015.53730       -36.13111        56.66430
     2015.54004       -36.55715        56.32810
     2015.54277       -37.93318        57.24064
     2015.54551       -29.60622        55.99189
     2015.54825       -27.32026        57.48078
     2015.55099       -32.41529        56.84681
     2015.55373       -27.53933        59.67089
     2015.55646       -29.16137        56.20322
     2015.55920       -28.07140        55.86702
     2015.56194       -35.75044        56.80838
     2015.56468       -28.46947        57.38473
     2015.56741       -34.14451        58.47978
     2015.57015       -31.80855        58.66229
     2015.57289       -34.65258        58.85441
     2015.57563       -33.47662        56.67390
     2015.57837       -33.74466        56.84681
     2015.58110       -30.50869        58.03792
     2015.58384       -32.76473        57.66329
     2015.58658       -28.98076        56.28007
     2015.58932       -31.16480        56.06874
     2015.59206       -31.19484        58.70071
     2015.59479       -30.76087        57.02931
     2015.59753       -23.13791        57.41354
     2015.60027       -31.18295        58.03792
     2015.60301       -35.52398        58.34530
     2015.60574       -31.14602        56.76996
     2015.60848       -25.36605        56.70272
     2015.61122       -32.77709        56.60666
     2015.61396       -27.84313        56.28967
     2015.61670       -35.59216        55.19462
     2015.61943       -27.61020        55.15619
     2015.62217       -20.98624        55.40594
     2015.62491       -23.26927        54.65670
     2015.62765       -25.36531        55.29067
     2015.63039       -28.46034        54.83920
     2015.63312       -33.63438        54.84881
     2015.63586       -28.97842        55.79017
     2015.63860       -29.55445        55.85741
     2015.64134       -27.78849        57.74014
     2015.64407       -33.02653        55.05053
     2015.64681       -31.37056        57.28867
     2015.64955       -27.01960        54.60867
     2015.65229       -32.82664        56.73154
     2015.65503       -25.54067        55.19462
     2015.65776       -28.11371        55.95347
     2015.66050       -28.63174        54.85842
     2015.66324       -31.63778        55.99189
     2015.66598       -23.84882        56.16480
     2015.66872       -21.80585        57.92265
     2015.67145       -24.37789        55.36752
     2015.67419       -32.44993        54.72394
     2015.67693       -31.15596        54.61827
     2015.67967       -32.17300        55.15619
     2015.68240       -29.56103        56.82759
     2015.68514       -28.91307        55.16580
     2015.68788       -23.28011        55.89584
     2015.69062       -28.85614        55.77096
     2015.69336       -29.54418        56.28967
     2015.69609       -23.89822        55.66530
     2015.69883       -22.16325        55.34831
     2015.70157       -25.16029        55.56924
     2015.70431       -29.79332        55.99189
     2015.70705       -27.82036        55.40594
     2015.70978       -29.59040        55.31949
     2015.71252       -28.68943        55.37713
     2015.71526       -23.44547        56.37612
     2015.71800       -26.40351        55.41555
     2015.72073       -25.51254        55.22343
     2015.72347       -21.71758        55.25225
     2015.72621       -30.22561        57.17340
     2015.72895       -32.56165        55.91505
     2015.73169       -28.90469        56.27046
     2015.73442       -28.55772        55.86702
     2015.73716       -27.50876        55.49240
     2015.73990       -25.24080        56.60666
     2015.74264       -27.65183        57.03892
     2015.74538       -20.32187        57.05813
     2015.74811       -28.85891        57.91304
     2015.75085       -36.80994        55.25225
     2015.75359       -29.78898        55.23304
     2015.75633       -27.78201        56.00150
     2015.75906       -28.75405        54.45497
     2015.76180       -32.70409        54.34931
     2015.76454       -24.84312        54.24365
     2015.76728       -25.28016        55.22343
     2015.77002       -29.47820        56.31849
     2015.77275       -24.80223        55.64609
     2015.77549       -20.95327        54.54143
     2015.77823       -23.63630        54.32049
     2015.78097       -25.49934        54.91605
     2015.78371       -21.54838        55.49240
     2015.78644       -22.08141        55.42516
     2015.78918       -31.30445        55.02171
     2015.79192       -28.14049        55.57885
     2015.79466       -23.34552        55.27146
     2015.79739       -27.94456        55.62688
     2015.80013       -24.06759        56.36652
     2015.80287       -32.86863        54.81039
     2015.80561       -26.65367        55.62688
     2015.80835       -29.44870        53.97469
     2015.81108       -27.62174        53.74415
     2015.81382       -24.29478        55.48279
     2015.81656       -37.10881        54.70472
     2015.81930       -33.03585        55.39634
     2015.82203       -30.04188        55.50200
     2015.82477       -30.47092        53.83060
     2015.82751       -36.91296        55.70372
     2015.83025       -27.95899        54.77196
     2015.83299       -22.54703        55.89584
     2015.83572       -32.01607        56.19361
     2015.83846       -28.94510        54.45497
     2015.84120       -32.99514        54.88723
     2015.84394       -36.61817        54.78157
     2015.84668       -33.32621        55.64609
     2015.84941       -32.15425        56.13598
     2015.85215       -28.18328        55.59806
     2015.85489       -39.45132        54.52222
     2015.85763       -36.11336        56.04953
     2015.86036       -28.95239        55.77096
     2015.86310       -32.44643        55.08895
     2015.86584       -33.80647        55.15619
     2015.86858       -32.59750        56.16480
     2015.87132       -33.17354        56.35691
     2015.87405       -44.17057        56.60666
     2015.87679       -38.94861        57.33670
     2015.87953       -44.74265        58.07634
     2015.88227       -25.12768        56.67390
     2015.88501       -29.27072        54.95447
     2015.88774       -28.82576        54.47419
     2015.89048       -21.65179        55.76136
     2015.89322       -29.44083        55.27146
     2015.89596       -32.98886        55.55003
     2015.89869       -40.52290        55.52121
     2015.90143       -31.86594        55.30989
     2015.90417       -40.09097        54.79118
     2015.90691       -31.07001        54.36852
     2015.90965       -30.84305        55.43476
     2015.91238       -30.18308        54.74315
     2015.91512       -32.44112        54.30128
     2015.91786       -28.51315        55.56924
     2015.92060       -19.49919        56.61627
     2015.92334       -36.10423        59.16179
     2015.92607       -41.16926        58.05713
     2015.92881       -28.81430        57.88423
     2015.93155       -28.27434        63.06172
     2015.93429       -35.66537        64.59864
     2015.93702       -28.00841        61.70731
     2015.93976       -20.59444        61.28466
     2015.94250       -41.29448        57.34630
     2015.94524       -48.92452        58.45097
     2015.94798       -30.60055        58.61426
     2015.95071       -32.51359        56.27046
     2015.95345       -45.05663        56.88523
     2015.95619       -36.51666        56.96207
     2015.95893       -44.27770        57.93225
     2015.96167       -32.76073        58.66229
     2015.96440       -13.73477        58.47018
     2015.96714        -9.30781        57.29828
     2015.96988         0.28116        60.46817
     2015.97535        13.02608        62.74473
     2016.05749       247.52600        80.53458
     2016.07666       308.91474        78.53658
     2016.07939       373.18970        77.65285
     2016.08761       353.18060        69.86259
     2016.09034       349.24256        73.40711
     2016.09308       317.65852        69.73772
     2016.09582       300.55449        72.11994
     2016.09856       292.04345        74.66546
     2016.10130       302.23441        79.92941
     2016.10403       313.11338        81.61042
     2016.10677       339.28634        82.46533
     2016.10951       331.09831        77.20138
     2016.11225       344.54627        84.68426
     2016.11772       327.91920        92.05187
     2016.12046       258.68116        98.40126
     2016.18069       256.41136      5914.82538
     2016.19986       722.99111     12436.24533
     2016.20260       883.21607     16803.28222
     2016.20533       628.19104     11535.57739
     2016.21081       849.28896     17752.27522
     2016.21629       533.90589     16271.10799
     2016.21902       731.44985     12085.71040
     2016.22176       717.85782     10289.84493
     2016.22450       655.35378      9161.66761
     2016.22724       696.82275     10381.29682
     2016.22997       641.03071      8350.49408
     2016.23271       635.71767      8512.51439
     2016.23819       670.19360      8458.84434
     2016.24093       636.75856      8355.10163
     2016.24366       772.73253     11388.48839
     2016.24641       598.49850     11704.09849
     2016.25735       672.27935     22099.68934
     2016.26557       707.31024     37305.44760
     2016.26831       876.32420     41718.11905
     2016.27104       870.95716     62856.88143
     2016.27378       872.76513     68712.48339
     2016.28747       871.82995     18522.83155
     2016.29021       660.65391     13626.70567
     2016.29842       786.53580     67234.88055
     2016.30663       906.77169     22012.95892
     2016.30937       891.79266     13562.66997
     2016.31211       879.88462     13925.07833
     2016.31485       856.41458     13385.16768
     2016.31759       779.76555     12133.43265
     2016.32032       757.83951      9851.01976
     2016.32306       769.56048     10745.19572
     2016.32580       693.79344     11078.92670
     2016.32854       711.76440     10091.42197
     2016.33128       627.07637     10194.04132
     2016.33401       661.04733     12683.53289
     2016.33675       646.94029     11309.42725
     2016.33949       539.08026     14719.14909
     2016.34770       546.38615     12788.78235
     2016.41615        -8.31276        73.10933
     2016.41889       -17.32479        63.64767
     2016.42162       -26.03883        58.37412
     2016.42436       -39.39187        56.23204
     2016.42710       -46.36290        55.53082
     2016.42984       -44.31694        55.72293
     2016.43258       -37.11598        55.45397
     2016.43531       -49.02301        54.31089
     2016.43805       -41.85205        54.31089
     2016.44079       -39.02708        55.17541
     2016.44353       -42.16912        53.92666
     2016.44626       -38.67216        53.92666
     2016.44900       -40.79619        54.83920
     2016.45174       -31.97323        55.31949
     2016.45448       -39.57427        53.29268
     2016.45722       -46.67730        54.58946
     2016.45995       -35.93534        54.99290
     2016.46543       -40.91041        53.61927
     2016.46817       -38.21645        53.57125
     2016.47091       -32.41548        54.55103
     2016.47364       -38.68352        54.24365
     2016.47638       -40.54456        54.81999
     2016.47912       -42.93759        55.41555
     2016.48186       -32.14863        53.90745
     2016.48459       -32.77266        54.24365
     2016.48733       -37.40570        53.68652
     2016.49007       -34.78074        53.12938
     2016.49281       -35.63577        54.56064
     2016.49555       -34.97881        54.83920
     2016.49828       -37.46085        53.84981
     2016.50102       -39.32788        53.50401
     2016.50376       -39.81192        55.71333
     2016.50650       -36.96595        55.73254
     2016.50924       -38.27299        54.22444
     2016.51197       -39.65703        53.51361
     2016.51471       -35.75406        54.32049
     2016.51745       -29.73810        56.15519
     2016.52019       -46.43014        54.24365
     2016.52292       -39.34617        54.73354
     2016.52566       -37.44321        53.11978
     2016.52840       -37.43625        54.38773
     2016.53114       -30.75928        53.39834
     2016.53388       -33.82232        54.90644
     2016.53661       -33.93035        55.34831
     2016.53935       -39.90539        54.52222
     2016.54209       -32.57943        53.21583
     2016.54483       -32.08746        53.98429
     2016.54757       -41.30650        53.77297
     2016.55030       -36.19554        54.98329
     2016.55304       -39.44357        53.22544
     2016.55578       -34.83861        55.90544
     2016.55852       -30.70564        52.95648
     2016.56125       -31.81668        55.11777
     2016.56399       -36.49872        53.97469
     2016.56673       -31.07775        55.69412
     2016.56947       -37.56079        55.01211
     2016.57221       -34.17983        53.73454
     2016.57494       -30.81686        55.01211
     2016.57768       -31.55490        53.92666
     2016.58042       -33.87093        55.06014
     2016.58316       -35.08797        54.86802
     2016.58590       -39.33301        53.01411
     2016.58863       -29.10804        53.50401
     2016.59137       -34.92108        61.39032
     2016.59411       -31.46912        54.09956
     2016.59685       -32.33015        54.07074
     2016.59958       -28.15519        55.11777
     2016.60232       -30.44722        54.80078
     2016.60506       -31.91726        53.48479
     2016.60780       -26.93830        54.57024
     2016.61054       -30.24233        54.74315
     2016.61327       -40.73537        53.63849
     2016.61601       -40.68841        53.87863
     2016.61875       -39.22044        54.57024
     2016.62149       -40.48848        53.22544
     2016.62423       -35.28052        54.62788
     2016.62696       -33.77755        54.90644
     2016.62970       -38.27659        54.20523
     2016.63244       -36.14862        54.00350
     2016.63518       -37.38866        53.67691
     2016.63791       -31.73970        55.74214
     2016.64065       -34.93073        52.88924
     2016.64339       -30.72977        54.71433
     2016.64613       -31.07381        54.42616
     2016.64887       -37.05084        53.94587
     2016.65160       -35.98688        55.51161
     2016.65434       -38.24891        53.49440
     2016.65708       -38.90095        53.58085
     2016.65982       -44.33099        53.27347
     2016.66256       -42.07402        54.16680
     2016.66529       -40.26106        54.28207
     2016.66803       -33.17510        53.51361
     2016.67077       -33.87313        54.16680
     2016.67351       -33.59117        53.57125
     2016.67624       -27.88520        53.53282
     2016.67898       -34.99724        53.23505
     2016.68172       -29.84228        53.17741
     2016.68446       -29.68631        56.24164
     2016.68720       -32.97335        56.85641
     2016.68993       -31.57339        55.38673
     2016.69267       -29.91942        53.03332
     2016.69541       -31.32346        54.08996
     2016.69815       -31.37149        52.87963
     2016.70089       -27.18253        52.98530
     2016.70362       -28.33857        56.42415
     2016.70636       -29.70460        57.73053
     2016.70910       -30.75964        56.71233
     2016.71184       -26.77868        53.02372
     2016.71457       -34.07171        52.71633
     2016.71731       -30.88075        54.08035
     2016.72005       -27.70278        55.38673
     2016.72279       -23.86282        54.31089
     2016.72553       -32.64786        53.85942
     2016.72826       -33.09789        55.27146
     2016.73100       -29.21993        54.36852
     2016.73374       -33.42397        54.71433
     2016.73648       -35.14200        53.96508
     2016.73921       -36.93404        54.45497
     2016.74195       -32.00708        54.30128
     2016.74469       -33.93411        54.46458
     2016.74743       -29.31215        54.70472
     2016.75017       -31.76018        54.44537
     2016.75290       -37.26022        54.41655
     2016.75564       -31.58226        53.98429
     2016.75838       -37.25029        54.57024
     2016.76112       -30.92333        54.00350
     2016.76386       -24.72337        53.47519
     2016.76659       -31.85540        54.53182
     2016.76933       -29.84644        55.06974
     2016.77207       -32.61847        54.64709
     2016.77481       -28.56451        53.60006
     2016.77754       -32.33955        54.32049
     2016.78028       -31.96758        54.81999
     2016.78302       -35.23062        55.48279
     2016.78576       -22.24666        58.91204
     2016.78850       -32.78369        56.50100
     2016.79123       -28.97873        58.22043
     2016.79397       -42.01676        60.18000
     2016.79671       -42.38380        60.33369
     2016.79945       -42.29284        58.41254
     2016.80219       -36.70787        55.55964
     2016.80492       -33.33091        55.64609
     2016.80766       -30.70395        54.31089
     2016.81040       -35.11898        55.55964
     2016.81314       -35.34702        56.54903
     2016.81587       -28.66505        57.33670
     2016.81861       -28.63509        56.44336
     2016.82135       -33.51913        56.38573
     2016.82409       -37.31816        56.86602
     2016.82683       -36.98920        56.24164
     2016.82956       -35.52824        55.81899
     2016.83230       -44.16227        57.45197
     2016.83504       -52.39731        58.44136
     2016.83778       -42.29034        55.54042
     2016.84052       -44.81938        54.56064
     2016.84325       -42.11842        55.49240
     2016.84599       -36.74445        55.06014
     2016.84873       -36.83749        56.46258
     2016.85147       -38.58153        55.48279
     2016.85420       -41.97456        54.51261
     2016.85694       -35.64860        55.68451
     2016.85968       -43.69664        55.68451
     2016.86242       -36.14667        55.13698
     2016.86516       -31.98171        56.92365
     2016.86789       -37.14174        55.43476
     2016.87063       -35.78078        54.17641
     2016.87337       -38.22982        56.40494
     2016.87611       -43.21785        53.86902
     2016.87885       -41.86889        54.16680
     2016.88158       -37.00693        54.68551
     2016.88432       -32.78096        54.05153
     2016.88706       -43.36300        57.91304
     2016.88980       -42.97603        58.27806
     2016.89253       -42.67407        58.53742
     2016.89527       -39.10111        58.18200
     2016.89801       -40.97514        57.30788
     2016.90075       -38.64118        55.57885
     2016.90349       -37.38622        57.44236
     2016.90622       -42.18325        55.52121
     2016.90896       -48.45829        55.15619
     2016.91170       -45.80032        55.97268
     2016.91444       -35.67836        53.72494
     2016.91718       -41.98040        54.39734
     2016.91991       -52.09443        54.90644
     2016.92265       -57.72247        55.01211
     2016.92539       -48.80951        55.27146
     2016.92813       -41.31154        53.34071
     2016.93086       -44.17758        52.34171
     2016.93360       -41.78661        52.77397
     2016.93634       -26.09265        54.88723
     2016.93908       -19.64769        59.76695
     2017.02395       200.56919        78.47895
     2017.02669       195.38615        76.55780
     2017.02943       218.49712        75.37629
     2017.03216       206.22808        77.74891
     2017.03490       208.17904        74.13715
     2017.03764       234.87901        71.60123
     2017.04038       210.65197        66.86560
     2017.04312       231.41393        68.99807
     2017.04585       216.37890        70.45815
     2017.04859       230.24386        71.13055
     2017.05133       208.06683        74.24281
     2017.05407       221.97779        72.13915
     2017.05681       226.27675        78.88239
     2017.05954       277.38872        82.61902
     2017.06228       248.70568        82.21558
     2017.06502       246.61264        84.59781
     2017.06776       253.51661        80.96683
     2017.07049       238.80857        80.43852
     2017.07323       247.81753        78.25801
     2017.07597       235.56250        82.33085
     2017.07871       254.26646        81.62002
     2017.08145       234.94443        76.54819
     2017.08418       254.28839        74.20439
     2017.08692       242.72635        73.87779
     2017.08966       255.68132        73.74331
     2017.09240       260.22528        85.42390
     2017.09514       323.27724        84.43451
     2017.09787       312.74121        84.39609
     2017.10609       320.46010       110.59096
     2017.19917       653.57287      9847.93526
     2017.20739       643.11476       125.25893
     2017.22108       654.30358       122.80946
     2017.22381       688.24154       129.16847
     2017.22655       674.09950       130.55170
     2017.24298       709.94829       160.07976
     2017.24846       697.32621       128.49607
     2017.25119       626.05518       169.32049
     2017.25667       644.65010       129.78324
     2017.25941       726.96907       134.67256
     2017.31964       803.90627       160.07976
     2017.41546       286.72500       550.57255
     2017.41820       260.61296       300.49656
     2017.42094       178.01793       288.38371
     2017.42368       323.43589       271.16061
     2017.42642       176.60885       151.73237
     2017.44558       156.21560        84.34806
     2017.45106       150.29653       100.92757
     2017.50034       -45.59112        54.39734
     2017.50308       -39.75816        54.77196
     2017.50581       -44.75620        54.51261
     2017.50855       -51.67823        54.17641
     2017.51129       -46.94327        54.64709
     2017.51403       -47.55831        54.87763
     2017.51676       -51.85634        55.20422
     2017.51950       -49.60738        54.05153
     2017.52224       -36.14042        54.52222
     2017.52498       -42.93045        55.06014
     2017.52772       -43.30749        56.64508
     2017.53045       -44.31452        54.80078
     2017.53319       -44.99856        53.72494
     2017.53593       -38.97560        54.97369
     2017.53867       -43.34063        53.54243
     2017.54141       -41.38567        54.78157
     2017.54414       -46.08771        53.65770
     2017.54688       -47.25674        53.42716
     2017.54962       -47.29778        54.44537
     2017.55236       -44.15981        53.59046
     2017.55509       -43.69885        55.05053
     2017.55783       -43.04389        54.84881
     2017.56057       -45.58692        54.67591
     2017.56331       -44.50396        55.06014
     2017.56605       -46.46200        55.70372
     2017.56878       -48.16603        56.24164
     2017.57152       -43.12607        56.57784
     2017.57426       -46.25810        55.30028
     2017.57700       -46.76914        56.04953
     2017.57974       -52.29218        54.95447
     2017.58247       -44.55121        55.85741
     2017.58521       -48.40525        55.74214
     2017.58795       -44.77429        57.16380
     2017.59069       -47.20732        56.34731
     2017.59342       -40.43636        55.06014
     2017.59616       -42.50039        55.88623
     2017.59890       -36.98543        54.58946
     2017.60164       -35.28447        54.90644
     2017.60438       -41.55950        54.58946
     2017.60711       -39.54154        55.55003
     2017.60985       -40.59458        56.48179
     2017.61259       -39.19661        55.07935
     2017.61533       -40.83465        54.57985
     2017.61807       -37.62069        57.52881
     2017.62080       -43.91872        57.20222
     2017.62354       -41.49376        55.17541
     2017.62628       -37.24679        56.43376
     2017.62902       -35.57783        56.83720
     2017.63175       -42.08587        54.95447
     2017.63449       -39.60890        54.84881
     2017.63723       -41.23494        54.71433
     2017.63997       -40.44098        54.57024
     2017.64271       -33.90201        54.33010
     2017.64544       -41.06105        54.65670
     2017.64818       -41.74508        55.72293
     2017.65092       -41.97812        55.56924
     2017.65366       -37.16616        54.56064
     2017.65639       -39.96219        54.10917
     2017.65913       -39.14823        54.77196
     2017.66187       -33.72627        55.62688
     2017.66461       -35.88230        58.91204
     2017.66735       -47.64534        55.51161
     2017.67008       -46.24437        53.89784
     2017.67282       -49.24341        56.37612
     2017.67556       -51.41445        54.56064
     2017.67830       -48.21648        54.93526
     2017.68104       -44.52852        55.67490
     2017.68377       -51.76056        57.53842
     2017.68651       -45.64759        56.91405
     2017.68925       -47.57963        54.76236
     2017.69199       -42.81066        55.18501
     2017.69472       -41.43370        55.73254
     2017.69746       -44.81674        55.90544
     2017.70020       -42.43577        57.76896
     2017.70294       -39.86281        58.52781
     2017.70568       -48.32285        55.82860
     2017.70841       -41.93988        55.28107
     2017.71115       -40.29292        55.77096
     2017.71389       -42.99595        55.40594
     2017.71663       -37.82099        54.42616
     2017.71937       -50.30503        56.78917
     2017.72210       -43.42506        53.57125
     2017.72484       -48.01610        53.49440
     2017.72758       -41.91314        53.47519
     2017.73032       -42.43617        54.45497
     2017.73305       -55.79321        55.02171
     2017.73579       -51.83325        55.57885
     2017.73853       -47.36828        56.39534
     2017.74127       -44.91032        55.17541
     2017.74401       -41.27135        54.05153
     2017.74674       -46.65439        54.26286
     2017.74948       -47.28743        53.30229
     2017.75222       -47.65246        54.57985
     2017.75496       -44.61450        54.72394
     2017.75770       -45.21354        56.11677
     2017.76043       -46.49857        54.41655
     2017.76317       -45.61961        54.10917
     2017.76591       -46.84164        55.08895
     2017.76865       -38.81368        56.07835
     2017.77138       -40.57772        54.82960
     2017.77412       -47.51675        53.98429
     2017.77686       -43.45579        53.48479
     2017.77960       -45.83483        54.70472
     2017.78234       -50.95486        54.88723
     2017.78507       -42.04590        54.93526
     2017.78781       -45.61893        54.60867
     2017.79055       -47.21897        54.45497
     2017.79329       -43.51601        54.31089
     2017.79603       -42.04104        55.04093
     2017.79876       -34.03608        56.40494
     2017.80150       -38.05712        55.48279
     2017.80424       -40.67215        56.09756
     2017.80698       -56.42519        55.16580
     2017.80971       -51.43722        55.21383
     2017.81245       -45.53226        54.99290
     2017.81519       -44.38630        54.60867
     2017.81793       -46.17533        54.59906
     2017.82067       -44.35137        55.71333
     2017.82340       -41.30541        54.52222
     2017.82614       -43.96644        54.70472
     2017.82888       -44.19248        54.33010
     2017.83162       -37.38752        54.56064
     2017.83436       -46.41155        53.88824
     2017.83709       -49.56659        55.55003
     2017.83983       -42.37262        57.32709
     2017.84257       -44.31366        60.31448
     2017.84531       -44.84970        59.45957
     2017.84804       -57.99773        60.71792
     2017.85078       -49.49177        58.85441
     2017.85352       -42.94481        56.02071
     2017.85626       -35.49284        60.73713
     2017.85900       -40.56288        61.91864
     2017.86173       -43.47391        64.55061
     2017.86447       -39.03795        62.76395
     2017.86721       -31.47999        62.79276
     2017.86995       -43.28902        61.82258
     2017.87269       -40.68806        62.52380
     2017.87542       -42.56810        62.87921
     2017.87816       -58.23613        62.37972
     2017.88090       -48.02417        64.60825
     2017.88364       -49.56120        62.91764
     2017.88637       -40.50724        60.35290
     2017.88911       -56.50428        57.38473
     2017.89185       -47.16631        55.61727
     2017.89459       -35.12735        56.48179
     2017.89733       -42.60739        56.48179
     2017.90006       -38.16742        55.77096
     2017.90280       -39.58046        58.16279
     2017.90554       -43.45749        55.15619
     2017.90828       -42.90253        55.06974
     2017.91102       -43.10057        56.87562
     2017.91375       -42.42860        56.36652
     2017.91649       -43.59764        55.65569
     2017.91923       -39.65368        54.94487
     2017.92197       -49.17571        54.69512
     2017.92470       -46.78875        54.53182
     2017.92744       -49.16478        55.86702
     2017.93018       -50.88782        55.60766
     2017.93292       -47.73786        54.54143
     2017.93566       -47.56189        54.90644
     2017.93839       -43.51093        54.59906
     2017.94113       -48.61097        55.49240
     2017.94387       -41.68400        56.10716
     2017.94661       -46.89704        55.78057
     2017.94935       -44.47608        56.61627
     2017.95208       -44.48811        57.05813
     2017.95482       -44.13315        55.89584
     2017.95756       -56.37818        56.19361
     2017.96030       -54.13622        56.46258
     2017.96303       -45.43626        55.64609
     2017.96577       -39.27029        57.07734
     2017.96851       -47.48433        53.93626
     2017.97125       -51.12837        53.63849
     2017.97399       -44.44340        55.10817
     2017.97672       -49.65344        54.58946
     2017.97946       -47.15247        54.97369
     2017.98220       -52.20051        54.74315
     2017.98494       -51.25955        53.91705
     2017.98767       -52.71658        54.92566
     2017.99041       -47.53962        55.02171
     2017.99315       -45.74466        55.32910
     2017.99589       -41.69869        55.79978
     2017.99863       -44.59573        55.39634
     2018.00136       -51.88676        55.69412
     2018.00410       -51.62080        56.48179
     2018.00684       -49.60084        56.74114
     2018.00958       -48.24887        58.09555
     2018.01232       -52.00691        57.66329
     2018.01505       -50.81995        55.55964
     2018.01779       -51.45098        55.66530
     2018.02053       -45.26302        56.02071
     2018.02327       -59.11905        61.20781
     2018.02600       -49.18809        56.02071
     2018.02874       -45.00913        55.70372
     2018.03148       -58.76516        56.83720
     2018.03422       -62.04220        56.91405
     2018.03696       -59.21824        56.21283
     2018.03969       -56.80927        56.19361
     2018.04243       -54.01531        55.42516
     2018.04517       -54.36734        56.52982
     2018.04791       -54.92138        56.61627
     2018.05065       -59.69342        56.64508
     2018.05338       -52.64345        56.61627
     2018.05612       -49.58249        56.03032
     2018.05886       -51.02953        55.43476
     2018.06160       -51.64956        55.37713
     2018.06433       -50.21960        56.86602
     2018.06707       -50.59564        57.01010
     2018.06981       -41.12767        58.36451
     2018.07255       -44.01071        58.44136
     2018.07529       -34.97774        57.25985
     2018.07802       -32.75078        54.86802
     2018.08076       -32.81882        56.08795
     2018.08350       -56.60085        56.52021
     2018.08624       -55.54089        56.33770
     2018.08898       -54.23193        54.57985
     2018.09171       -54.47096        54.63748
     2018.09445       -53.72600        55.65569
     2018.09719       -54.03803        58.37412
     2018.09993       -59.46807        56.47218
     2018.10266       -56.25611        56.46258
     2018.10540       -56.17314        55.53082
     2018.10814       -56.38018        55.03132
     2018.11088       -54.28322        56.59706
     2018.11362       -52.28025        56.20322
     2018.11635       -50.49429        55.23304
     2018.11909       -53.35932        55.99189
     2018.12183       -53.58336        55.83820
     2018.12457       -51.64840        55.16580
     2018.12731       -48.45743        56.79878
     2018.13004       -42.67347        56.39534
     2018.13278       -33.67751        54.11877
     2018.13552       -47.28354        54.42616
     2018.13826       -44.92258        54.99290
     2018.14099       -53.88161        53.86902
     2018.14373       -51.12265        53.93626
     2018.14647       -51.73569        55.20422
     2018.14921       -52.92472        55.63648
     2018.15195       -54.51676        67.96065
     2018.15468       -68.11280        64.08954
     2018.19849       101.32762        62.86961
     2018.20123       100.70959        65.20380
     2018.20397       108.59655        66.57743
     2018.20670       122.25051        64.10875
     2018.20944       115.31748        67.46116
     2018.21218       114.60144        66.35649
     2018.21492        95.95641        59.92064
     2018.21765       108.85137        64.71391
     2018.22039       145.96033        71.29385
     2018.22313       170.43630        66.48137
     2018.22587       146.36026        73.09012
     2018.22861       136.80522        74.84797
     2018.23134       140.12219        73.15736
     2018.23408       144.19315        79.67006
     2018.23682       146.53912        70.60223
     2018.23956       172.92208        70.24682
     2018.24777       172.20097        67.50918
     2018.25051       156.77493        68.66187
     2018.25325       135.14490        65.88581
     2018.25598       127.07286        67.26904
     2018.25872       148.03783        66.27965
     2018.26146       141.02179        64.22402
     2018.26420       136.55275        79.61242
     2018.26694       135.53672        66.29886
     2018.26967       124.32968        66.27965
     2018.27789       184.64457        63.93585
     2018.28062       170.43253        84.77071
     2018.28336       184.96150        88.00785
     2018.28610       161.56646        75.46274
     2018.30253       161.78224        98.61259
     2018.30527       131.33821       100.17833
     2018.31074       128.65214        97.09488
     2018.31348       129.57010        88.54577
     2018.31622       134.99006        78.38289
     2018.31895       119.22603        76.77873
     2018.34907       -63.09037        63.20581
     2018.35181       -40.11141        57.78817
     2018.35455       -46.23844        56.63548
     2018.35728       -43.61948        56.52021
     2018.36002       -51.79152        57.79777
     2018.36276       -49.30855        54.30128
     2018.36550       -34.96359        54.87763
     2018.36824       -51.79363        52.79318
     2018.37097       -51.30666        53.73454
     2018.37371       -55.81670        55.06974
     2018.37645       -59.58673        55.89584
     2018.37919       -52.87777        52.72594
     2018.38193       -52.87881        53.97469
     2018.38466       -49.20284        53.41755
     2018.38740       -40.24388        53.57125
     2018.39014       -46.10992        54.78157
     2018.39288       -51.73895        54.86802
     2018.39561       -52.91299        54.39734
     2018.39835       -54.43603        54.75275
     2018.40109       -45.70406        57.24064
     2018.40383       -44.28710        54.32049
     2018.40657       -46.32813        54.07074
     2018.40930       -36.47317        55.18501
     2018.41204       -37.38821        55.65569
     2018.41478       -46.68224        54.08035
     2018.41752       -53.39628        54.77196
     2018.42026       -47.10432        53.61927
     2018.42299       -46.75235        54.32049
     2018.42573       -43.52639        54.15720
     2018.42847       -42.72542        53.96508
     2018.43121       -46.96546        54.16680
     2018.43394       -50.12350        54.61827
     2018.43668       -46.19553        54.38773
     2018.43942       -45.06557        53.40795
     2018.44216       -52.62661        54.17641
     2018.44490       -48.69064        53.69612
     2018.44763       -46.24468        55.19462
     2018.45037       -40.04271        54.90644
     2018.45311       -40.28775        54.99290
     2018.45585       -47.86579        54.25325
     2018.45859       -40.72282        53.80178
     2018.46132       -50.09486        53.62888
     2018.46406       -47.02790        54.07074
     2018.46680       -45.58493        54.72394
     2018.46954       -52.04097        55.27146
     2018.47227       -42.22200        55.88623
     2018.47501       -42.37704        53.95548
     2018.47775       -45.82608        54.18601
     2018.48049       -45.14211        54.62788
     2018.48323       -42.04015        54.22444
     2018.48596       -46.90619        55.27146
     2018.48870       -43.84522        53.69612
     2018.49144       -45.53526        53.65770
     2018.49418       -51.23630        54.24365
     2018.49692       -43.68733        54.69512
     2018.49965       -45.42837        54.83920
     2018.50239       -47.48740        54.75275
     2018.50513       -53.62044        54.15720
     2018.50787       -49.27248        54.27247
     2018.51060       -53.93451        53.61927
     2018.51334       -50.17255        53.20623
     2018.51608       -49.01559        55.55964
     2018.51882       -50.92862        55.45397
     2018.52156       -48.35566        53.59046
     2018.52429       -49.67469        53.82100
     2018.52703       -48.21373        53.60967
     2018.52977       -52.18077        56.46258
     2018.53251       -42.08180        56.00150
     2018.53525       -41.32184        55.10817
     2018.53798       -45.55588        55.73254
     2018.54072       -46.69591        54.83920
     2018.54346       -46.44995        54.61827
     2018.54620       -49.45198        54.92566
     2018.54893       -41.84902        54.72394
     2018.55167       -51.00406        54.72394
     2018.55441       -45.73209        57.03892
     2018.55715       -52.12013        54.60867
     2018.55989       -51.07417        56.48179
     2018.56262       -46.28120        57.10616
     2018.56536       -46.50824        55.57885
     2018.56810       -47.40627        53.63849
     2018.57084       -46.30831        54.33971
     2018.57357       -45.13535        55.79017
     2018.57631       -46.37838        58.64308
     2018.57905       -45.88142        58.03792
     2018.58179       -48.25646        54.92566
     2018.58453       -49.19449        57.75935
     2018.58726       -43.28153        53.32150
     2018.59000       -39.01456        54.03232
     2018.59274       -43.03360        53.98429
     2018.59548       -39.35964        55.60766
     2018.59822       -44.12667        54.26286
     2018.60095       -42.68271        54.73354
     2018.60369       -36.79975        54.94487
     2018.60643       -41.16678        54.50300
     2018.60917       -40.70882        53.93626
     2018.61190       -43.47186        54.28207
     2018.61464       -40.27189        53.70573
     2018.61738       -44.51093        53.82100
     2018.62012       -39.39596        54.26286
     2018.62286       -38.97500        55.50200
     2018.62559       -45.11004        55.35791
     2018.62833       -44.74407        53.64809
     2018.63107       -44.56711        53.90745
     2018.63381       -41.20715        56.01111
     2018.63655       -43.48018        54.08035
     2018.63928       -41.85122        56.93326
     2018.64202       -42.52625        56.00150
     2018.64476       -42.51129        54.70472
     2018.64750       -51.30933        54.06114
     2018.65023       -39.66436        54.57024
     2018.65297       -37.29940        53.15820
     2018.65571       -40.50344        53.38874
     2018.65845       -45.41747        54.34931
     2018.66119       -45.46351        55.41555
     2018.66392       -44.87954        54.83920
     2018.66666       -38.51758        53.99390
     2018.66940       -40.31062        54.51261
     2018.67214       -46.51765        53.96508
     2018.67488       -43.39269        54.60867
     2018.67761       -44.69373        55.86702
     2018.68035       -42.28476        54.62788
     2018.68309       -51.32680        55.15619
     2018.68583       -42.64483        55.60766
     2018.68856       -46.21387        53.92666
     2018.69130       -42.74391        54.77196
     2018.69404       -43.71094        55.87663
     2018.69678       -42.31398        53.92666
     2018.69952       -44.43902        54.09956
     2018.70225       -47.82605        55.28107
     2018.70499       -45.97909        54.72394
     2018.70773       -46.52612        54.76236
     2018.71047       -46.67516        53.89784
     2018.71321       -45.12420        53.98429
     2018.71594       -54.71823        55.40594
     2018.71868       -50.16727        54.57985
     2018.72142       -50.84031        54.41655
     2018.72416       -45.63334        55.76136
     2018.72689       -38.21238        54.52222
     2018.72963       -41.04842        54.70472
     2018.73237       -48.66045        55.25225
     2018.73511       -45.88849        54.41655
     2018.73785       -44.75752        54.54143
     2018.74058       -48.64756        53.93626
     2018.74332       -42.56560        54.61827
     2018.74606       -48.40863        54.87763
     2018.74880       -41.49067        54.48379
     2018.75154       -43.62171        53.79218
     2018.75427       -46.43474        55.06014
     2018.75701       -46.10478        56.86602
     2018.75975       -45.57681        54.19562
     2018.76249       -40.10885        56.14559
     2018.76522       -50.20889        54.87763
     2018.76796       -56.28792        56.36652
     2018.77070       -41.99396        54.21483
     2018.77344       -41.35000        54.34931
     2018.77618       -44.94103        54.28207
     2018.77891       -38.84507        54.49340
     2018.78165       -41.81410        55.63648
     2018.78439       -45.72414        55.38673
     2018.78713       -44.01118        53.86902
     2018.78987       -49.80821        54.95447
     2018.79260       -44.78525        53.20623
     2018.79534       -40.65229        53.75376
     2018.79808       -46.95632        53.68652
     2018.80082       -39.90736        54.31089
     2018.80355       -40.47039        53.78257
     2018.80629       -39.55843        55.68451
     2018.80903       -43.40347        54.82960
     2018.81177       -50.09750        56.40494
     2018.81451       -45.59954        54.56064
     2018.81724       -52.04158        54.06114
     2018.81998       -38.83661        54.44537
     2018.82272       -37.08165        55.89584
     2018.82546       -40.27369        53.77297
     2018.82820       -45.08372        53.84981
     2018.83093       -40.95676        54.82960
     2018.83367       -49.14879        54.42616
     2018.83641       -42.57483        55.71333
     2018.83915       -33.31587        54.79118
     2018.84188       -47.56590        56.37612
     2018.84462       -38.99694        55.20422
     2018.84736       -43.32598        54.25325
     2018.85010       -47.28101        54.12838
     2018.85284       -45.38805        54.06114
     2018.85557       -50.35908        54.77196
     2018.85831       -49.31412        53.72494
     2018.86105       -46.99816        55.06014
     2018.86379       -46.40119        55.54042
     2018.86653       -43.43123        54.71433
     2018.86926       -48.27027        55.01211
     2018.87200       -42.83930        55.02171
     2018.87474       -41.11934        54.83920
     2018.87748       -42.52037        54.10917
     2018.88021       -45.29941        54.78157
     2018.88295       -43.85345        55.70372
     2018.88569       -44.13948        54.95447
     2018.88843       -34.65152        55.19462
     2018.89117       -38.36056        59.19061
     2018.89390       -30.44659        61.09255
     2018.89664       -41.81163        63.86861
     2018.89938       -39.76566        61.53441
     2018.90212       -38.61970        56.76035
     2018.90485       -36.63274        57.06774
     2018.90759       -51.59577        56.97168
     2018.91033       -44.58781        59.31548
     2018.91307       -46.68285        63.04251
     2018.91581       -38.83488        58.45097
     2018.91854       -37.54292        56.92365
     2018.92128       -35.13995        58.82559
     2018.92402       -33.48299        55.74214
     2018.92676       -40.28203        55.11777
     2018.92950       -34.07306        55.59806
     2018.93223       -47.18710        57.34630
     2018.93497       -47.24014        56.23204
     2018.93771       -47.93217        55.69412
     2018.94045       -39.76121        55.07935
     2018.94318       -43.35525        54.17641
     2018.94592       -40.31728        54.34931
     2018.94866       -44.74932        54.75275
     2018.95140       -42.28135        57.78817
     2018.95414       -37.57839        55.38673
     2018.95687       -16.79943        59.34430
     2018.95961       -19.76946        62.08194
     2018.96235        -9.55350        60.91964
     2018.96509       -24.15554        60.59305
     2018.96783       -39.07057        53.80178
     2018.97056       -42.14361        53.72494
     2018.97330       -49.85664        53.08135
     2018.97604       -49.32068        53.42716
     2019.04449       226.64541        72.56181
     2019.04722       216.83338        75.50116
     2019.04996       204.34734        83.94462
     2019.05270       218.56630        90.70706
     2019.05544       208.97727        78.81515
     2019.05817       210.65523        78.12353
     2019.06091       214.54719        73.48396
     2019.06365       214.77416        68.56582
     2019.06639       202.65012        69.06531
     2019.06913       206.21609        68.18159
     2019.07186       224.28405        68.73872
     2019.07460       190.17401        66.74072
     2019.07734       208.61598        67.42273
     2019.08008       169.45594        67.63406
     2019.08282       177.86590        67.24983
     2019.08555       194.70387        64.63707
     2019.08829       241.78583        65.39592
     2019.15400       508.75896        90.95681
     2019.18138       478.73460        99.68843
     2019.18959       485.38149        95.53875
     2019.19233       476.15945        95.19294
     2019.19507       460.61042        89.23738
     2019.19780       489.62738        91.56197
     2019.20328       523.36431        91.97502
     2019.20602       474.30227        91.72527
     2019.20876       518.53924        93.45430
     2019.21149       534.97020        95.46191
     2019.22518       498.31202        85.06849
     2019.26351       589.16851       135.34496
     2019.26899       611.00044       120.84029
     2019.27173       537.97340       101.00442
     2019.27446       538.15436       105.77848
     2019.28268       583.39926       104.84672
     2019.29911       506.29604       137.97694
     2019.31827       404.76678       173.54702
     2019.32375       481.74871       144.36476
     2019.33470       532.06057       154.08577
     2019.33744       445.32553       260.56547
     2019.34839       545.67239       212.77688
     2019.35660       455.16028       222.59396
     2019.35935       453.72725       232.50709
     2019.36208       405.46520       258.62511
     2019.36481       372.19617       177.64867
     2019.36755       431.28313       128.77463
     2019.37029       533.25209       120.96516
     2019.37303       476.70906       102.47410
     2019.37577       419.11702       108.74665
     2019.37850       468.08199        96.28800
     2019.38124       458.73295       109.09246
     2019.38398       486.19491       109.88974
     2019.38672       440.50188       105.96099
     2019.38945       507.68084       112.30078
     2019.39219       526.52380       178.77254
     2019.41683       559.17848       126.93033
     2019.41957       473.90544       122.44445
     2019.42231       460.12541       112.64658
     2019.42505       397.82037       106.28758
     2019.47159       -57.01325        53.87863
     2019.47433       -51.60528        54.45497
     2019.47707       -53.64932        54.55103
     2019.47980       -45.72236        54.73354
     2019.48254       -50.32339        54.89684
     2019.48528       -49.63843        54.70472
     2019.48802       -57.42547        53.63849
     2019.49076       -57.01850        53.76336
     2019.49349       -56.85654        54.38773
     2019.49623       -51.71057        55.03132
     2019.49897       -51.57361        53.60006
     2019.50171       -50.99765        53.85942
     2019.50444       -49.37568        54.89684
     2019.50718       -54.17172        54.98329
     2019.50992       -51.56976        55.10817
     2019.51266       -53.38079        54.61827
     2019.51540       -46.96483        55.51161
     2019.51813       -51.01986        54.44537
     2019.52087       -55.10290        54.22444
     2019.52361       -53.78594        55.73254
     2019.52635       -52.79397        55.03132
     2019.52908       -52.59901        57.98028
     2019.53182       -56.52005        55.96308
     2019.53456       -54.42208        56.78917
     2019.53730       -43.89312        57.43276
     2019.54004       -49.91115        56.46258
     2019.54277       -47.63019        55.86702
     2019.54551       -48.38823        57.32709
     2019.54825       -48.61826        54.54143
     2019.55099       -49.27030        54.16680
     2019.55373       -41.47634        56.17440
     2019.55646       -43.93337        55.90544
     2019.55920       -48.92841        55.85741
     2019.56194       -42.88844        55.15619
     2019.56468       -50.07248        56.28007
     2019.56741       -50.86552        53.71533
     2019.57015       -43.65155        55.60766
     2019.57289       -39.04859        55.38673
     2019.57563       -46.41863        55.44437
     2019.57837       -46.01766        55.67490
     2019.58110       -47.35770        54.34931
     2019.58384       -46.35073        55.59806
     2019.58658       -43.21977        54.98329
     2019.58932       -42.89681        53.99390
     2019.59206       -43.14184        54.99290
     2019.59479       -43.99588        55.21383
     2019.59753       -43.11192        56.69311
     2019.60027       -43.59395        57.42315
     2019.60301       -46.07999        54.78157
     2019.60574       -38.50203        57.26946
     2019.60848       -48.03306        56.42415
     2019.61122       -46.66810        54.05153
     2019.61396       -51.92813        55.44437
     2019.61670       -45.68017        55.37713
     2019.61943       -39.27221        54.38773
     2019.62217       -32.74624        57.36552
     2019.62491       -44.00628        54.49340
     2019.62765       -41.92232        54.72394
     2019.63039       -41.69335        55.66530
     2019.63312       -43.50839        54.35892
     2019.63586       -36.87942        56.38573
     2019.63860       -48.24846        57.60566
     2019.64134       -41.56450        55.53082
     2019.64407       -45.74353        55.67490
     2019.64681       -53.10157        55.06974
     2019.64955       -43.62161        55.37713
     2019.65229       -39.34364        55.22343
     2019.65503       -45.71168        55.43476
     2019.65776       -45.84171        56.23204
     2019.66050       -44.28075        55.93426
     2019.66324       -44.47479        56.02071
     2019.66598       -41.50882        55.85741
     2019.66872       -45.12186        55.19462
     2019.67145       -44.44590        56.60666
     2019.67419       -45.53893        55.99189
     2019.67693       -46.25497        58.79677
     2019.67967       -48.00200        56.78917
     2019.68240       -43.98304        55.24265
     2019.68514       -50.18108        55.81899
     2019.68788       -41.24211        56.52021
     2019.69062       -43.59015        55.55964
     2019.69336       -46.51619        54.15720
     2019.69609       -43.15022        54.22444
     2019.69883       -44.46626        55.02171
     2019.70157       -41.31930        54.70472
     2019.70431       -44.03233        55.42516
     2019.70705       -42.30037        56.51060
     2019.70978       -47.17740        54.46458
     2019.71252       -41.26144        55.69412
     2019.71526       -42.12248        54.22444
     2019.71800       -37.63051        56.99089
     2019.72073       -42.59655        58.03792
     2019.72347       -45.77059        54.79118
     2019.72621       -49.67962        54.98329
     2019.72895       -42.93766        55.52121
     2019.73169       -30.38669        55.67490
     2019.73442       -42.29273        54.97369
     2019.73716       -42.13877        55.05053
     2019.73990       -42.52880        56.58745
     2019.74264       -39.34084        54.81039
     2019.74538       -59.54088        53.70573
     2019.74811       -44.76991        55.29067
     2019.75085       -47.74195        55.58845
     2019.75359       -41.24298        55.75175
     2019.75633       -40.85902        54.29168
     2019.75906       -41.04506        55.18501
     2019.76180       -42.51509        54.58946
     2019.76454       -46.29313        55.47318
     2019.76728       -42.38317        55.74214
     2019.77002       -40.59420        54.23404
     2019.77275       -43.53624        55.41555
     2019.77549       -41.12927        54.89684
     2019.77823       -45.40331        55.32910
     2019.78097       -39.03435        56.07835
     2019.78371       -39.39738        54.55103
     2019.78644       -39.71942        54.81039
     2019.78918       -32.97246        55.73254
     2019.79192       -45.71249        56.21283
     2019.79466       -33.88053        54.98329
     2019.79739       -37.90956        56.52021
     2019.80013       -42.32060        54.08996
     2019.80287       -46.78364        56.56824
     2019.80561       -39.80367        55.60766
     2019.80835       -40.68771        55.21383
     2019.81108       -36.46375        54.87763
     2019.81382       -41.17178        55.80939
     2019.81656       -42.45682        55.35791
     2019.81930       -41.90586        55.42516
     2019.82203       -45.82389        55.88623
     2019.82477       -42.03793        56.81799
     2019.82751       -43.59796        56.97168
     2019.83025       -44.55300        57.51921
     2019.83299       -40.32704        58.42215
     2019.83572       -40.56807        56.51060
     2019.83846       -36.43411        56.34731
     2019.84120       -32.96415        56.77957
     2019.84394       -47.65218        58.30688
     2019.84668       -50.22822        56.34731
     2019.84941       -42.29925        55.27146
     2019.85215       -41.69129        56.02071
     2019.85489       -37.68033        55.91505
     2019.85763       -41.64436        56.79878
     2019.86036       -35.55540        55.97268
     2019.86310       -45.78044        56.05913
     2019.86584       -33.34947        56.00150
     2019.86858       -36.71051        56.61627
     2019.87132       -39.03654        57.63448
     2019.87405       -39.05558        57.34630
     2019.87679       -45.65962        58.60466
     2019.87953       -38.55365        56.05913
     2019.88227       -25.33769        56.25125
     2019.88501       -28.62773        55.06014
     2019.88774       -38.08976        57.03892
     2019.89048       -38.37180        55.97268
     2019.89322       -37.83783        56.22243
     2019.89596       -35.93787        56.50100
     2019.89869       -39.22391        56.08795
     2019.90143       -39.04694        54.30128
     2019.90417       -36.62098        55.55003
     2019.90691       -43.90302        56.33770
     2019.90965       -40.30105        53.61927
     2019.91238       -34.90609        54.21483
     2019.91512       -40.98212        57.62487
     2019.91786       -32.68916        60.13197
     2019.92060       -35.84620        61.33269
     2019.92607       -38.49527        55.80939
     2019.92881       -37.28631        61.60165
     2019.93155       -42.88734        60.59305
     2019.93429       -41.80238        60.36251
     2019.93702       -45.12042        60.31448
     2019.93976       -49.32345        56.49139
     2019.94250       -50.83749        56.24164
     2019.94524       -32.76052        59.23864
     2019.94798       -39.62756        61.23663
     2019.95071       -30.12160        64.55061
     2019.95345       -27.59663        61.65928
     2019.95619       -32.30467        61.15018
     2019.95893       -34.97971        56.43376
     2019.96167       -38.85574        54.30128
     2019.96440       -33.93478        56.69311
     2019.97535        49.23908        58.74874
     2019.97809        16.98604        56.67390
     2019.98083        15.27400        58.21082
     2019.99452        14.11682        55.37713
     2020.00000        30.33275        55.71333
     2020.02737        21.93139        56.10716
     2020.03285        27.16531        56.63548
     2020.03559        49.85328        55.14659
     2020.03833        63.88124        56.00150
     2020.04106        80.46721        58.74874
     2020.04380       100.67317        62.40853
     2020.04654       108.15713        61.89943
     2020.05475       113.59102        60.12237
     2020.08487       102.21663        66.13556
     2020.09034       104.38355        59.52681
     2020.09308       104.72552        60.13197
     2020.09582        81.45848        61.07333
     2020.09856       109.20344        62.77355
     2020.10130        84.19241        64.18560
     2020.10403        97.63437        60.67950
     2020.10677        74.88134        61.40954
     2020.10951        84.93530        63.07133
     2020.11225        64.43526        62.21642
     2020.11498        70.18723        61.83219
     2020.11772        66.98519        66.62546
     2020.12046        55.75715        64.48337
     2020.12320        46.69512        64.32968
     2020.12594        61.56708        61.67850
     2020.12867        54.28905        60.91964
     2020.13141        64.92401        61.82258
     2020.13415        66.84697        60.07434
     2020.13689        66.59194        62.71592
     2020.13963        61.10890        63.61886
     2020.14236        69.88986        63.42674
     2020.14510        82.15883        63.98387
     2020.14784        86.08979        62.46617
     2020.15058        70.28775        63.00409
     2020.15331        58.28972        63.21542
     2020.15605        51.69468        61.20781
     2020.15879        83.94665        63.59004
     2020.16153        74.01361        61.91864
     2020.16427        90.49157        57.38473
     2020.16700        63.65754        57.43276
     2020.16974        29.42750        66.34689
     2020.17248        52.79046        65.42474
     2020.17522        72.97143        61.07333
     2020.17796        95.23439        60.42014
     2020.18069        90.23536        58.23964
     2020.18343        84.65232        56.49139
     2020.18617        81.61428        56.50100
     2020.18891        59.98725        58.55663
     2020.19164        70.96021        64.01269
     2020.19438        59.65517        60.60265
     2020.19712        52.70914        60.80437
     2020.19986        44.23910        61.57283
     2020.20260        34.30507        59.71892
     2020.20533        51.66303        59.10416
     2020.20807        63.22099        58.09555
     2020.21081        61.24896        57.38473
     2020.21355        78.25292        62.75434
     2020.21629        67.12288        61.24624
     2020.21902        61.83085        60.35290
     2020.22176        58.23681        60.18961
     2020.22450        56.75378        59.69971
     2020.22724        59.53374        59.36351
     2020.22997        60.76170        62.11075
     2020.23271        64.18967        60.29527
     2020.23545        72.67263        60.43935
     2020.23819        61.08859        59.53641
     2020.24093        63.26256        92.82032
     2020.24366        72.48252        96.20155
     2020.24640       101.25048        95.98062
     2020.24914        97.39645        96.86434
     2020.25188       104.38241        94.34764
     2020.25462       110.65138        95.50033
     2020.25735       116.58334        96.68183
     2020.28473       108.26398       105.45188
     2020.29021       115.17290        96.82592
     2020.34496       -40.03382        89.77530
     2020.34770       -52.50886        86.90319
     2020.35044       -47.56089        88.28641
     2020.35318       -40.24793        83.26261
     2020.35592       -42.88097        83.32985
     2020.35865       -38.31800        83.65644
     2020.36139       -43.11904        84.28082
     2020.36413       -48.32808        85.65444
     2020.36687       -44.21711        87.93100
     2020.36961       -43.59115        88.12312
     2020.37234       -43.27918        82.66705
     2020.37508       -59.59722        57.33670
     2020.37782       -54.15426        58.15319
     2020.38056       -51.22329        58.15319
     2020.38329       -43.09733        57.59605
     2020.38603       -47.51337        54.78157
     2020.38877       -44.49940        55.49240
     2020.39151       -54.23644        55.45397
     2020.39425       -51.21447        54.93526
     2020.39698       -56.76451        56.02071
     2020.39972       -51.07355        56.24164
     2020.40246       -50.91558        56.20322
     2020.40520       -50.80562        56.59706
     2020.40794       -48.03166        57.34630
     2020.41067       -54.50369        57.86501
     2020.41341       -54.52073        57.24064
     2020.41615       -49.07976        55.69412
     2020.41889       -53.38180        57.23104
     2020.42162       -52.80184        56.34731
     2020.42436       -47.80287        58.51821
     2020.42710       -50.19291        59.01770
     2020.42984       -46.41395        56.95247
     2020.43258       -58.25298        54.41655
     2020.43531       -56.52802        57.48078
     2020.43805       -45.72405        57.44236
     2020.44079       -52.04509        57.46157
     2020.44353       -43.75713        56.48179
     2020.44626       -56.08616        56.20322
     2020.44900       -53.90020        56.56824
     2020.45174       -46.06724        56.48179
     2020.45448       -44.72527        55.75175
     2020.45722       -45.83131        54.96408
     2020.45995       -44.20334        54.82960
     2020.46269       -52.95638        55.99189
     2020.46543       -49.39342        56.38573
     2020.46817       -52.51645        57.79777
     2020.47091       -41.59749        56.59706
     2020.47364       -44.90553        56.28967
     2020.47638       -49.04956        55.72293
     2020.47912       -47.88560        57.54803
     2020.48186       -44.83264        56.18401
     2020.48459       -45.47867        57.81699
     2020.48733       -42.42871        58.52781
     2020.49007       -37.64374        56.27046
     2020.49281       -44.31078        57.24064
     2020.49555       -38.60482        54.67591
     2020.49828       -34.79485        55.65569
     2020.50102       -45.66689        55.59806
     2020.50376       -47.78793        56.14559
     2020.50650       -47.41096        55.35791
     2020.50924       -46.14900        55.03132
     2020.51197       -40.44603        54.00350
     2020.51471       -37.65407        55.69412
     2020.51745       -45.52011        54.23404
     2020.52019       -36.48914        57.16380
     2020.52292       -39.77018        56.08795
     2020.52566       -39.40122        56.61627
     2020.52840       -40.43525        56.14559
     2020.53114       -43.04229        56.86602
     2020.53388       -38.23432        55.96308
     2020.53661       -37.23836        56.93326
     2020.53935       -51.17140        57.15419
     2020.54209       -36.18043        58.65269
     2020.54483       -35.70647        57.26946
     2020.54757       -43.23251        56.84681
     2020.55030       -42.77154        57.31749
     2020.55304       -40.73758        59.55563
     2020.55578       -43.28761        57.30788
     2020.55852       -29.83365        57.28867
     2020.56125       -41.05569        55.72293
     2020.56399       -40.45572        56.07835
     2020.56673       -44.51376        56.10716
     2020.56947       -35.92080        57.66329
     2020.57221       -45.42983        58.84480
     2020.57494       -41.68287        56.74114
     2020.57768       -39.08791        56.79878
     2020.58042       -46.06394        55.88623
     2020.58316       -47.70298        56.72193
     2020.58590       -49.51901        56.47218
     2020.58863       -40.49205        55.98229
     2020.59137       -40.58109        56.61627
     2020.59411       -40.68412        56.69311
     2020.59685       -40.99216        58.07634
     2020.59958       -49.91320        59.79577
     2020.60232       -41.68723        57.69211
     2020.60506       -45.45727        56.41455
     2020.60780       -39.26830        56.67390
     2020.61054       -37.96934        57.25985
     2020.61327       -44.00638        56.77957
     2020.61601       -40.66541        58.03792
     2020.61875       -43.47645        57.41354
     2020.62149       -45.16549        57.18301
     2020.62423       -39.71152        57.38473
     2020.62696       -50.10156        58.74874
     2020.62970       -45.83259        56.24164
     2020.63244       -37.77263        53.81139
     2020.63518       -38.38667        54.38773
     2020.63791       -42.49970        56.02071
     2020.64065       -44.65974        54.24365
     2020.64339       -46.09378        53.97469
     2020.64613       -37.86581        54.54143
     2020.64887       -43.99985        54.50300
     2020.65160       -37.20488        54.08035
     2020.65434       -43.65792        54.71433
     2020.65708       -41.93196        54.15720
     2020.65982       -38.65299        53.59046
     2020.66256       -46.73203        53.76336
     2020.66529       -33.98607        53.64809
     2020.66803       -35.59410        53.98429
     2020.67077       -40.64814        53.84021
     2020.67351       -38.59717        53.31189
     2020.67624       -34.02521        53.82100
     2020.67898       -43.56825        53.81139
     2020.68172       -40.39028        53.90745
     2020.68446       -36.51132        55.64609
     2020.68720       -40.31736        53.99390
     2020.68993       -37.14039        54.08035
     2020.69267       -37.89143        54.63748
     2020.69541       -36.53747        57.11577
     2020.69815       -37.00150        54.28207
     2020.70089       -38.61854        53.32150
     2020.70362       -39.50957        54.44537
     2020.70636       -40.90661        56.52982
     2020.70910       -38.84165        55.91505
     2020.71184       -37.05968        54.79118
     2020.71457       -29.21772        55.64609
     2020.71731       -40.24376        56.44336
     2020.72005       -36.75879        55.50200
     2020.72279       -37.72383        54.02272
     2020.72553       -36.04386        55.77096
     2020.72826       -35.70490        55.90544
     2020.73100       -27.33994        54.64709
     2020.73374       -30.65397        54.89684
     2020.73648       -37.10201        54.38773
     2020.73921       -28.53605        55.09856
     2020.74195       -34.21808        54.34931
     2020.74469       -35.23112        53.92666
     2020.74743       -34.85215        54.22444
     2020.75017       -37.65819        55.17541
     2020.75290       -39.43623        54.33971
     2020.75564       -34.15226        53.02372
     2020.75838       -24.67830        53.78257
     2020.76112       -29.68634        54.60867
     2020.76386       -28.96937        53.26386
     2020.76659       -26.61641        53.28307
     2020.76933       -22.72044        54.74315
     2020.77207       -25.92348        55.37713
     2020.77481       -24.58052        53.96508
     2020.77754       -28.92255        55.01211
     2020.78028       -26.27159        56.95247
     2020.78302       -36.38663        54.15720
     2020.78576       -28.30666        54.67591
     2020.78850       -21.63670        56.15519
     2020.79123       -37.35873        54.94487
     2020.79397       -25.43577        54.93526
     2020.79671       -34.65681        54.27247
     2020.79945       -28.37884        54.20523
     2020.80219       -23.70888        56.13598
     2020.80492       -17.01592        54.47419
     2020.80766       -20.91395        54.70472
     2020.81040       -24.99399        58.95046
     2020.81314       -24.92703        54.01311
     2020.81587       -34.21306        58.05713
     2020.81861       -27.01010        54.53182
     2020.82135       -25.70413        54.89684
     2020.82409       -29.60317        56.05913
     2020.82683       -27.16321        55.55964
     2020.82956       -29.96324        57.53842
     2020.83230       -23.65028        55.25225
     2020.83504       -25.24032        55.15619
     2020.83778       -27.36935        55.61727
     2020.84052       -26.68139        55.06974
     2020.84325       -30.72142        54.79118
     2020.84599       -32.22146        56.97168
     2020.84873       -22.60550        54.93526
     2020.85147       -21.63653        53.40795
     2020.85420       -30.64557        55.06974
     2020.85694       -21.82161        55.11777
     2020.85968       -24.86964        54.96408
     2020.86242       -23.19168        54.92566
     2020.86516       -24.18671        55.99189
     2020.86789       -13.55175        54.92566
     2020.87063       -18.40979        53.86902
     2020.87337       -32.49982        56.04953
     2020.87611       -28.62686        62.59104
     2020.87885       -18.65590        56.18401
     2020.88158       -24.41493        56.47218
     2020.88432       -18.01397        55.02171
     2020.88706       -30.18600        56.42415
     2020.88980       -30.98004        55.79978
     2020.89253       -27.26508        55.62688
     2020.89527       -21.85911        58.96007
     2020.89801       -37.44715        61.62086
     2020.90075       -30.80919        60.48738
     2020.90349       -32.03722        60.66029
     2020.90622       -25.23026        63.16739
     2020.90896       -25.15230        61.92825
     2020.91170       -23.22433        56.87562
     2020.91444       -31.43937        58.86401
     2020.91718       -28.19640        54.62788
     2020.91991       -32.47544        57.04853
     2020.92265       -30.45448        61.67850
     2020.92539       -33.32251        54.99290
     2020.92813       -34.96555        54.60867
     2020.93086       -29.02859        54.79118
     2020.93360       -36.59562        60.24724
     2020.93634       -32.01766        54.53182
     2020.93908       -36.07069        56.04953
     2020.94182       -29.41173        56.93326
     2020.94455       -32.73077        61.39032
     2020.94729       -32.71080        58.37412
     2020.95003       -37.90284        54.80078
     2020.95277       -50.40788        56.02071
     2020.95551       -42.04791        56.94286
     2020.95824       -40.41495        54.71433
     2020.96098       -36.34398        61.02531
     2020.96372       -42.72002        55.99189
     2020.96646       -34.15506        55.15619
     2020.96919       -32.61009        56.05913
     2020.97193       -36.09813        56.08795
     2020.97467       -33.45617        55.52121
     2020.97741       -40.73220        59.97828
     2020.98015       -36.32724        57.63448
     2020.98288       -28.96327        57.97068
     2020.98562       -25.34431        56.91405
     2020.98836       -37.15835        54.09956
     2020.99110       -27.94638        54.83920
     2020.99384       -26.23842        62.21642
     2020.99657       -31.60246        62.52380
     2020.99931       -28.43549        56.52982
     2021.00205       -32.27753        54.52222
     2021.00479       -32.03456        56.52982
     2021.00752       -29.19460        54.40695
     2021.01026       -22.43564        56.60666
     2021.01300        -5.98267        56.53942
     2021.01574        -3.18271        54.42616
     2021.01848       -12.50575        57.62487
     2021.02121       -10.25278        55.80939
     2021.02395        -6.67782        58.05713
     2021.02669       -13.10786        56.48179
     2021.02943        -7.98789        54.23404
     2021.03216        -4.33493        55.59806
     2021.03490         6.90904        57.16380
     2021.03764         6.91400        56.80838
     2021.04038        -0.31104        58.26846
     2021.04312        -5.49207        57.42315
     2021.04585       -25.12311        54.46458
     2021.04859       -25.99915        60.77556
     2021.05133       -32.84918        53.27347
     2021.05407       -36.54422        62.36050
     2021.05681       -37.19025        55.89584
     2021.05954       -36.27729        56.59706
     2021.06228       -44.16233        55.38673
     2021.06502       -35.34836        53.18702
     2021.06776       -19.97740        53.60967
     2021.07049       -21.98144        53.13899
     2021.07323         9.37453        58.59505
     2021.07597        16.40349        60.17039
     2021.11978        89.64591        60.32409
     2021.12251       106.73388        59.91104
     2021.12525       103.76584        70.89041
     2021.13073        88.60377        72.59062
     2021.13347        93.82373        70.70790
     2021.13894        96.72766        75.24181
     2021.14168       117.19562        65.34789
     2021.14442       111.25758        67.06732
     2021.14715        94.24055        71.30345
     2021.14989       126.05451        65.86660
     2021.15263       117.82848        78.16196
     2021.15537       113.30944        70.92883
     2021.15811       119.09740        67.82617
     2021.16084       112.29437        71.87019
     2021.16358       122.47933        69.57442
     2021.16632       130.90129        64.70431
     2021.16906       124.34126        67.81657
     2021.17180       120.08422        63.84939
     2021.17453       118.80419        66.22201
     2021.17727       109.77315        62.92724
     2021.18001       107.15011        59.36351
     2021.18275       111.91808        61.30387
     2021.18548       140.22904        58.87362
     2021.18822       164.81600        57.04853
     2021.19096       168.21897        59.04652
     2021.19370       156.90893        60.29527
     2021.19644       165.75290        65.88581
     2021.19917       145.18386        70.33327
     2021.20191       173.24382        59.65168
     2021.20465       161.74179        64.49298
     2021.20739       173.97075        61.24624
     2021.25941       127.80706        90.02505
     2021.26762        80.85895        74.92482
     2021.27036        99.00992        75.47235
     2021.27310        89.39788        68.04711
     2021.27583        92.02784        70.58302
     2021.27857       116.84481        59.55563
     2021.30595       -14.67256        58.52781
     2021.30869       -16.33459        67.67248
     2021.31143       -21.92963        56.45297
     2021.31416       -26.96166        55.19462
     2021.31690       -34.13370        54.99290
     2021.31964       -35.22674        57.59605
     2021.32238       -23.63977        57.07734
     2021.32512       -36.26581        57.86501
     2021.32785       -38.47585        68.70990
     2021.33059       -24.19288        54.65670
     2021.33333       -23.15192        55.55964
     2021.33607       -30.05995        55.97268
     2021.33880       -33.80499        58.81598
     2021.34154       -29.29403        62.17799
     2021.34428       -39.18706        58.60466
     2021.34702       -35.89510        57.92265
     2021.34976       -31.10914        56.00150
     2021.35249       -34.16217        55.63648
     2021.35523       -29.67821        58.10516
     2021.35797       -30.71325        55.83820
     2021.36071       -34.61528        92.71466
     2021.36344       -34.13732        54.01311
     2021.36618       -40.13735        57.83620
     2021.36892       -41.75939        60.44896
     2021.37166       -28.42143        61.04452
     2021.37440       -32.17846        66.32768
     2021.37713       -36.24050        61.71692
     2021.37987       -26.17554        67.85499
     2021.38261       -27.92357        61.05412
     2021.38535       -30.35961        65.02130
     2021.38809       -32.99664        56.67390
     2021.39082       -43.34168        61.36151
     2021.39356       -39.09272        60.04552
     2021.39630       -34.14875        65.78015
     2021.39904       -33.40179        61.55362
     2021.40177       -37.11683        64.52180
     2021.40451       -33.49786        64.63707
     2021.40725       -33.76090        60.70832
     2021.40999       -29.68293        56.11677
     2021.41273       -32.21297        54.65670
     2021.41546       -30.54901        59.87262
     2021.41820       -34.63104        61.68810
     2021.42094       -36.53908        54.88723
     2021.42368       -27.21212        55.71333
     2021.42642       -31.15615        68.26804
     2021.42915       -26.32019        62.79276
     2021.43189       -25.60122        54.61827
     2021.43463       -32.92626        59.30588
     2021.43737       -38.06630        57.34630
     2021.44010       -37.04233        59.37312
     2021.44284       -34.11637        60.49699
     2021.44558       -39.04041        62.30287
     2021.44832       -34.21744        57.91304
     2021.45106       -30.62948        56.47218
     2021.45379       -31.58752        56.50100
     2021.45653       -39.85255        57.01010
     2021.45927       -22.40659        65.43434
     2021.46201       -28.31062        56.45297
     2021.46475       -33.23866        56.10716
     2021.46748       -35.32370        56.16480
     2021.47022       -32.81473        56.19361
     2021.47296       -27.63977        55.69412
     2021.47570       -27.55881        57.44236
     2021.47843       -31.03684        55.32910
     2021.48117       -31.04388        58.30688
     2021.48391       -35.02191        71.18818
     2021.48665       -33.62495        55.80939
     2021.48939       -27.85399        57.18301
     2021.49212       -21.54402        57.57684
     2021.49486       -28.23006        56.38573
     2021.49760       -28.29610        58.95046
     2021.50034       -35.15813        76.78833
     2021.50308       -31.68217        58.04752
     2021.50581       -30.57220        58.80638
     2021.50855       -35.94924        61.84179
     2021.51129       -30.75028        56.96207
     2021.51403       -31.05731        55.91505
     2021.51676       -28.89735        54.62788
     2021.51950       -26.54939        60.01670
     2021.52224       -28.10742        58.07634
     2021.52498       -26.99646        57.20222
     2021.52772       -29.59849        57.66329
     2021.53045       -27.04453        61.60165
     2021.53319       -33.02057        61.76495
     2021.53593       -35.18660        57.32709
     2021.53867       -32.31164        66.62546
     2021.54141       -30.56268        60.41054
     2021.54414       -34.95971        68.69069
     2021.54688       -41.16375        66.03950
     2021.54962       -30.70878        61.96667
     2021.55236       -32.85782        67.50918
     2021.55509       -29.80686        59.75735
     2021.55783       -34.00889        61.02531
     2021.56057       -30.17693        58.78717
     2021.56331       -29.07397        69.20940
     2021.56605       -31.95600        58.46057
     2021.56878       -36.84804        61.55362
     2021.57152       -36.18908        64.02230
     2021.57426       -32.97911        56.69311
     2021.57700       -28.70315        57.60566
     2021.57974       -44.20518        59.92064
     2021.58247       -38.89722        57.13498
     2021.58521       -34.75226        63.63807
     2021.58795       -36.83129        57.58645
     2021.59069       -29.25933        56.19361
     2021.59342       -35.51337        56.04953
     2021.59616       -35.86540        59.59405
     2021.59890       -29.39644        62.00509
     2021.60164       -32.11547        58.22043
     2021.60438       -29.36051        56.01111
     2021.60711       -30.31855        55.27146
     2021.60985       -28.27158        60.50659
     2021.61259       -30.80862        58.23003
     2021.61533       -43.55866        61.60165
     2021.61807       -30.58669        55.77096
     2021.62080       -29.36973        55.75175
     2021.62354       -28.38276        58.57584
     2021.62628       -25.92080        57.78817
     2021.62902       -31.11484        64.64667
     2021.63175       -35.10387        58.64308
     2021.63449       -24.35691        55.74214
     2021.63723       -28.26395        58.73914
     2021.63997       -27.79398        56.41455
     2021.64271       -29.77602        56.59706
     2021.64544       -30.81705        55.41555
     2021.64818       -28.10809        55.50200
     2021.65092       -19.41413        55.62688
     2021.65366       -29.26016        55.26186
     2021.65639       -30.62520        59.22903
     2021.65913       -33.42524        58.80638
     2021.66187       -28.70727        57.36552
     2021.66461       -26.13231        55.07935
     2021.66735       -27.35734        55.89584
     2021.67008       -30.20238        56.10716
     2021.67282       -26.66642        58.76795
     2021.67556       -27.49845        58.13398
     2021.67830       -28.14049        56.28967
     2021.68104       -21.90153        54.61827
     2021.68377       -22.39056        57.19261
     2021.68651       -19.32560        57.02931
     2021.68925       -24.50064        56.02071
     2021.69199       -27.68367        55.89584
     2021.69472       -23.30571        64.40653
     2021.69746       -23.04074        55.21383
     2021.70020       -25.68278        58.54702
     2021.70294       -23.27582        56.25125
     2021.70568       -24.64385        55.40594
     2021.70841       -21.44089        56.02071
     2021.71115       -19.75793        56.24164
     2021.71389       -22.85296        56.33770
     2021.71663       -24.42200        58.48939
     2021.71937       -24.12903        55.59806
     2021.72210       -28.58507        56.54903
     2021.72484       -31.65611        55.22343
     2021.72758       -27.57814        55.59806
     2021.73032       -34.60718        57.88423
     2021.73305       -29.71922        56.78917
     2021.73579       -18.29125        54.67591
     2021.73853       -21.02029        55.32910
     2021.74127       -27.90632        55.88623
     2021.74401       -23.80236        55.80939
     2021.74674       -27.59640        60.57384
     2021.74948       -26.44743        59.15218
     2021.75222       -19.89447        56.52021
     2021.75496       -18.87951        55.34831
     2021.75770       -23.19454        54.46458
     2021.76043       -21.02358        56.09756
     2021.76317       -21.05461        56.04953
     2021.76591       -24.85365        62.58144
     2021.76865       -20.61269        55.32910
     2021.77138       -24.64872        54.74315
     2021.77412       -20.33876        56.21283
     2021.77686       -28.01980        55.16580
     2021.77960       -16.91983        54.87763
     2021.78234       -25.06287        59.20982
     2021.78507       -25.93591        58.15319
     2021.78781       -20.28494        56.83720
     2021.79055       -19.18298        55.43476
     2021.79329       -18.00701        54.36852
     2021.79603       -32.46505        54.19562
     2021.79876       -23.94209        56.28007
     2021.80150       -20.77812        60.82358
     2021.80424       -21.29416        59.60365
     2021.80698       -31.87520        56.60666
     2021.80971       -31.39323        54.32049
     2021.81245       -21.66827        56.33770
     2021.81519       -18.67330        64.39692
     2021.81793       -21.98134        62.97527
     2021.82067       -32.49238        56.66430
     2021.82340       -35.44541        64.03190
     2021.82614       -27.09445        55.51161
     2021.82888       -18.20949        59.35391
     2021.83162       -21.34352        60.28566
     2021.83436       -21.13056        56.66430
     2021.83709       -40.04759        57.06774
     2021.83983       -35.61163        60.76595
     2021.84257       -15.98767        57.98028
     2021.84531       -24.38670        57.04853
     2021.84804       -37.59874        61.91864
     2021.85078       -38.54378        57.71132
     2021.85352       -27.30281        56.85641
     2021.85626       -16.39985        54.62788
     2021.85900       -30.35788        62.27405
     2021.86173       -40.05692        56.33770
     2021.86447       -30.00096        60.36251
     2021.86721       -30.54199        59.88222
     2021.86995       -32.94303        57.68251
     2021.87269       -28.62307        56.35691
     2021.87542       -25.43110        55.97268
     2021.87816       -37.46314        59.17140
     2021.88090       -29.45317        57.16380
     2021.88364       -31.63921        58.09555
     2021.88637       -30.74225        57.52881
     2021.88911       -33.56528        54.27247
     2021.89185       -41.05732        57.15419
     2021.89459       -35.96336        55.57885
     2021.89733       -38.44039        58.32609
     2021.90006       -40.56643        54.25325
     2021.90280       -39.39847        56.10716
     2021.90554       -33.12650        55.07935
     2021.90828       -29.30654        54.63748
     2021.91102       -30.69657        54.62788
     2021.91375       -31.56761        55.56924
     2021.91649       -32.34065        54.99290
     2021.91923       -34.61568        55.68451
     2021.92197       -41.37372        57.88423
     2021.92470       -42.64376        57.46157
     2021.92744       -34.34979        56.64508
     2021.93018       -38.67083        56.38573
     2021.93292       -35.69486        57.17340
     2021.93566       -23.93390        58.86401
     2021.97946        20.15052        60.78516
     2021.98220        42.70148        62.53341
     2021.98494        48.42845        66.51019
     2021.98767       109.30841        67.10574
     2021.99589       122.99630        62.72552
     2021.99863       112.55927        60.70832
     2022.00136       104.02823        66.66388
     2022.00410        93.05319        59.30588
     2022.00684        92.57816        58.34530
     2022.02327       123.40694        67.48997
     2022.02600       117.47790        60.68910
     2022.02874       102.12587        66.13556
     2022.03148       100.65783        63.80137
     2022.03422       100.14879        61.79376
     2022.03696        96.33576        63.67649
     2022.03969        91.80172        57.56724
     2022.04243        95.82968        58.90244
     2022.04517        91.79865        64.78115
     2022.04791        84.27261        59.72853
     2022.05065        80.27958        59.77656
     2022.05338        62.51154        63.97427
     2022.05612        60.50050        74.44453
     2022.05886        56.18147        77.03808
     2022.06160        51.34643       101.73446
     2022.06433        71.04839        68.28725
     2022.06707        67.92636        72.50417
     2022.06981        66.14732        62.36050
     2022.07255        56.63529        68.19119
     2022.07529        79.39025        69.74732
     2022.07802        65.16221        77.99866
     2022.08076        70.53618        65.81857
     2022.08350        84.75614        68.02789
     2022.08624        83.53310        68.14316
     2022.08898        62.83107        60.24724
     2022.09171        54.50303        63.42674
     2022.09445        67.34200        62.12997
     2022.09719        81.05496        80.28483
     2022.09993        92.69892        72.60023
     2022.10266       100.34689        77.17256
     2022.10540       120.99585        79.76612
     2022.10814       102.67181        90.39968
     2022.11362        86.41574        74.22360
     2022.12457       110.85260        60.80437
     2022.12731        73.71856        64.28165
     2022.13004        72.12152        64.10875
     2022.13278        86.45049        60.92925
     2022.13552        80.03345        56.53942
     2022.13826       104.08541        64.51219
     2022.14099        96.49538        59.60365
     2022.14373        79.10934        58.76795
     2022.14647        94.43031        55.01211
     2022.14921        91.04727        61.91864
     2022.15195        83.57323        58.41254
     2022.15468        89.68520        61.35190
     2022.15742        97.85516        69.15177
     2022.16016        99.50912        57.51921
     2022.16290        87.58909        69.10374
     2022.16564        76.12705        64.90603
     2022.16837        90.31402        56.55863
     2022.17111        88.44298        57.85541
     2022.17385        91.64294        57.19261
     2022.17659        80.51391        62.81197
     2022.17932        80.43987        58.70071
     2022.18206        71.86683        59.61326
     2022.18480        81.25680        58.96968
     2022.18754        90.03276        68.41212
     2022.19028        87.99773        61.87061
     2022.19301       105.60069        58.80638
     2022.19575       101.79165        60.77556
     2022.19849        70.92862        60.53541
     2022.20123        80.17758        58.45097
     2022.20397       103.29654        67.50918
     2022.20670        75.97651        59.96867
     2022.20944        84.41147        57.50960
     2022.21218       105.32944        68.44094
     2022.21492        79.49140        56.00150
     2022.21765        94.22436        58.56623
     2022.22039       107.31933        56.51060
     2022.22313       102.33429        77.50877
     2022.26694       -31.72829        64.95406
     2022.26967       -21.61833        63.62846
     2022.27241       -16.84336        54.98329
     2022.27515       -21.70740        57.89383
     2022.27789       -28.69744        57.91304
     2022.28062       -18.25147        57.43276
     2022.28336       -22.92451        56.20322
     2022.28610       -22.67454        65.51119
     2022.28884       -32.08758        59.99749
     2022.29158       -21.67262        55.85741
     2022.29431       -26.47765        57.98989
     2022.29705       -18.35369        57.57684
     2022.29979        17.72327        61.45756
     2022.30800        15.35317        71.29385
     2022.31074         5.29813        64.06072
     2022.31348        17.35909        61.56323
     2022.31622         3.92906        60.85240
     2022.32169        -3.30602        58.74874
     2022.32443       -15.16605        64.65628
     2022.32717       -29.59009        61.77455
     2022.32991       -34.09112        58.36451
     2022.33264       -41.40816        56.42415
     2022.33538       -43.61220        58.76795
     2022.33812       -42.23423        59.44036
     2022.34086       -35.41527        58.72953
     2022.34360       -26.46531        58.73914
     2022.34633       -33.12434        53.89784
     2022.34907       -41.25438        58.45097
     2022.35181       -31.50842        56.05913
     2022.35455       -35.03745        66.13556
     2022.35728       -32.14349        53.68652
     2022.36002       -34.52852        60.19921
     2022.36276       -35.80756        59.11376
     2022.36550       -40.62260        57.99950
     2022.36824       -33.85563        72.64826
     2022.37097       -38.83767        61.07333
     2022.37371       -37.42171        68.78675
     2022.37645       -40.09874        67.81657
     2022.37919       -34.99978        71.25542
     2022.38193       -40.14481        57.98989
     2022.38466       -41.35685        61.03491
     2022.38740       -48.62389        61.93785
     2022.39014       -32.27892        56.03992
     2022.39288       -24.77196        56.41455
     2022.39561       -30.61300        63.59004
     2022.39835       -35.25703        66.61585
     2022.40109       -39.46507        63.54201
     2022.40383       -31.43310        63.83979
     2022.40657       -34.09014        56.25125
     2022.40930       -39.68018        61.78416
     2022.41204       -34.59421        57.22143
     2022.41478       -30.43525        69.57442
     2022.41752       -34.69029        73.18618
     2022.42026       -30.12832        65.21341
     2022.42299       -34.65736        61.92825
     2022.42573       -24.65939        58.96968
     2022.42847       -31.65443        55.16580
     2022.43121       -32.91947        56.31849
     2022.43394       -30.57350        69.61284
     2022.43668       -36.50054        58.68150
     2022.43942       -35.90358        59.97828
     2022.44216       -29.71461        65.27104
     2022.44490       -14.44265        62.91764
     2022.44763       -20.19969        55.97268
     2022.45037       -34.05572        59.55563
     2022.45311       -36.79076        58.36451
     2022.45585       -28.87079        65.73212
     2022.45859       -51.24683        57.85541
     2022.46132       -38.37287        57.57684
     2022.46406       -33.10590        58.31648
     2022.46680       -34.42994        62.65828
     2022.46954       -31.32698        57.16380
     2022.47227       -42.37601        61.87061
     2022.47501       -29.47405        68.76754
     2022.47775       -29.09308        58.71993
     2022.48049       -40.05112        65.82818
     2022.48323       -22.78416        56.35691
     2022.48596       -22.28019        57.69211
     2022.48870       -41.65323        61.94746
     2022.49144       -40.77927        60.30487
     2022.49418       -30.57630        57.02931
     2022.49692       -29.65734        69.45915
     2022.49965       -30.29237        68.74833
     2022.50239       -45.10741        58.06674
     2022.50513       -40.36245        58.51821
     2022.50787       -21.32548        60.32409
     2022.51060       -38.19252        61.08294
     2022.51334       -31.20556        58.21082
     2022.51608       -31.93559        65.57843
     2022.51882       -36.63063        64.29126
     2022.52156       -42.15766        56.02071
     2022.52429       -37.05470        67.09614
     2022.52703       -31.38874        56.58745
     2022.52977       -23.52777        57.35591
     2022.53251       -39.38981        59.46917
     2022.53525       -43.74785        64.03190
     2022.53798       -34.97788        63.10015
     2022.54072       -33.24192        55.06014
     2022.54346       -34.58795        55.46358
     2022.54620       -36.06399        56.89483
     2022.54893       -35.46903        58.86401
     2022.55167       -33.37906        55.05053
     2022.55441       -35.46310        62.01470
     2022.55715       -23.59514        56.11677
     2022.55989       -38.14317        55.38673
     2022.56262       -30.67221        54.88723
     2022.56536       -41.00225        56.41455
     2022.56810       -33.83428        55.54042
     2022.57084       -35.71832        56.07835
     2022.57357       -34.62835        62.99448
     2022.57631       -41.79639        59.49799
     2022.57905       -44.64243        55.52121
     2022.58179       -28.81846        56.26086
     2022.58453       -24.32150        62.58144
     2022.58726       -35.58454        59.14258
     2022.59000       -33.02457        57.10616
     2022.59274       -48.52161        61.00609
     2022.59548       -32.28164        60.32409
     2022.59822       -35.32568        58.19161
     2022.60095       -38.05072        60.45857
     2022.60369       -33.45375        55.71333
     2022.60643       -31.67179        60.00710
     2022.60917       -28.73583        55.33870
     2022.61190       -22.13386        55.48279
     2022.61464       -30.75990        54.78157
     2022.61738       -25.83793        54.46458
     2022.62012       -40.98597        54.91605
     2022.62286       -30.05201        62.93685
     2022.62559       -32.24004        54.90644
     2022.62833       -32.76008        55.34831
     2022.63107       -32.80012        59.95907
     2022.63381       -28.14815        58.08595
     2022.63655       -28.80319        58.11476
     2022.63928       -27.27322        55.05053
     2022.64202       -29.98126        58.99849
     2022.64476       -20.11930        66.65427
     2022.64750       -20.65733        56.94286
     2022.65023       -20.64537        72.59062
     2022.65297       -24.64841        56.82759
     2022.65571       -23.25244        73.48396
     2022.65845       -17.87848        61.54402
     2022.66119       -20.70352        56.70272
     2022.66392       -27.11955        54.93526
     2022.66666       -26.39259        54.08035
     2022.66940       -19.79362        55.24265
     2022.67214       -23.90366        56.00150
     2022.67488       -21.02170        54.82960
     2022.67761       -19.15573        57.15419
     2022.68035       -16.04377        55.14659
     2022.68309       -16.18981        54.91605
     2022.68583       -22.50184        60.64108
     2022.68856       -17.87088        57.07734
     2022.69130       -19.95391        56.31849
     2022.69404       -23.56495        57.09655
     2022.69678       -18.12699        65.12696
     2022.69952       -27.71402        58.97928
     2022.70225       -22.00306        56.98129
     2022.70499       -16.95810        59.84380
     2022.70773       -26.42613        56.52982
     2022.71047       -19.42517        54.53182
     2022.71321        -8.60420        62.36050
     2022.71594       -25.65824        62.58144
     2022.71868       -36.09328        62.21642
     2022.72142       -26.46431        67.42273
     2022.72416       -13.47135        69.49757
     2022.72689       -10.86939        62.65828
     2022.72963       -13.01842        54.66630
     2022.73237       -16.36846        55.04093
     2022.73511       -22.09349        55.10817
     2022.73785       -10.30653        66.10674
     2022.74058        -5.31357        58.49899
     2022.74332        -9.74560        61.74574
     2022.74606        -8.84064        56.84681
     2022.74880       -18.07968        54.57024
