# ================= DQRFIT RESULTS ================
# INPUT FILE: series/P667.rad
# OUTPUT: LDETRENDED
# FILTER FUNCTION: f(t)
# f(t)=+line(t)+annual(t)
# line(t)=+P 1+P 2*t
# annual(t)=+P 3*sin(2*pi*t+P 4)
# heav(t)=(t<0?0:1)
# TOTAL OBSERVATIONS MTOT= 3363
# INITIAL TIME INTERVAL= 2022.7488 - 2007.7563 = 14.9925
# TOTAL OBSERVATIONS AFTER PREFILTER M= 2986
# TIME-SPAN= 2022.7488 - 2007.7563 = 14.9925
# OBSERVATIONS: USED M=  2986 REJECTED MTOT-M=   377 %USED=   88.7898
# N=  4 PARAMETERS
# MAXSIG= 175.00000
# MAXRES= 325.64026
# SCALE FACTOR FOR LENGTHS: SCL=  10.00000
# SCALE FACTOR FOR SIGMAS: SCLSIG=   1.00000
# CHI^2= 161749.923 DOF=  2982 CHI^2/DOF=  54.24209
# RMS=     57.384 SDEV=     57.148 MEAN=    5.30982
#  P #       PARAMETER +-    SIGMA %error PARAMETER NAME
# P 1 =     20031.53368 +-  496.569   2.48 YZERO                              
# P 2 =        -9.95129 +-    0.247   2.48 SLOPE                              
# P 3 =        22.00268 +-    1.392   6.32 ANNUAL AMPLITUDE                   
# P 4 =         0.19913 +-    0.088  44.23 ANNUAL PHASE                       
#       T            LDETRENDED       SIG_OBS
     2007.75633       -22.24005        46.38429
     2007.75906       -33.63280        45.97185
     2007.76180       -27.67156        47.36382
     2007.76454       -30.01331        46.40638
     2007.76728       -29.07007        50.15513
     2007.77002       -19.31882        51.58392
     2007.77275       -27.84258        49.27870
     2007.77549       -28.67233        46.92929
     2007.77823       -33.32109        47.96774
     2007.78097       -26.50384        46.55368
     2007.78371       -21.10460        47.84254
     2007.78644       -23.76635        47.00294
     2007.78918       -25.34111        46.02341
     2007.79192       -26.47186        47.87200
     2007.79466       -27.85762        48.48329
     2007.79739       -24.00237        46.70834
     2007.80013       -24.11413        46.04550
     2007.80287       -32.68688        45.94976
     2007.80561       -21.29064        46.18543
     2007.80835       -22.57239        47.27544
     2007.81108       -20.40715        47.47429
     2007.81382       -25.11290        47.11341
     2007.81656       -30.18266        47.22389
     2007.81930       -26.24141        46.43584
     2007.82203       -29.21916        45.86874
     2007.82477       -33.00592        47.26808
     2007.82751       -39.92367        47.30490
     2007.83025       -28.55743        47.57740
     2007.83299       -30.57118        46.15597
     2007.83572       -26.28994        45.78036
     2007.83846       -26.67769        46.36956
     2007.84120       -31.50845        45.59624
     2007.84394       -33.87020        46.14861
     2007.84668       -33.40896        45.14698
     2007.84941       -28.81871        45.78773
     2007.85215       -28.18947        46.04550
     2007.85489       -32.14522        46.79672
     2007.85763       -35.57098        46.58314
     2007.86036       -42.02973        47.70261
     2007.86310       -25.34349        46.53895
     2007.86584       -37.65924        47.64369
     2007.86858       -44.53400        46.17070
     2007.87132       -37.89575        46.13388
     2007.87405       -34.89951        46.87774
     2007.87679       -35.89826        46.70834
     2007.87953       -40.04802        46.16334
     2007.88227       -34.93477        48.15187
     2007.88501       -34.99653        46.11178
     2007.88774       -35.24528        46.36956
     2007.89048       -40.43504        46.31064
     2007.89322       -32.25479        47.33436
     2007.89596       -28.56755        47.07659
     2007.89869       -33.19130        46.95139
     2007.90143       -35.72306        46.12651
     2007.90417       -34.82081        46.55368
     2007.90691       -38.92857        46.24435
     2007.90965       -41.99932        46.87037
     2007.91238       -31.85207        46.87037
     2007.91512       -31.02883        45.94239
     2007.91786       -40.21858        46.21489
     2007.92060       -36.74334        48.71160
     2007.92334       -57.60109        47.54058
     2007.92607       -34.85585        47.78362
     2007.92881       -37.27560        47.17970
     2007.93155       -33.58936        47.35646
     2007.93429       -33.75811        46.93666
     2007.93702       -33.75987        46.87037
     2007.93976       -34.93262        46.27381
     2007.94250       -36.39338        47.11341
     2007.94524       -26.22813        48.39491
     2007.94798       -34.14489        47.70261
     2007.95071       -36.21964        47.01030
     2007.95345       -26.53340        47.59950
     2007.95619       -30.30415        47.17970
     2007.95893       -28.53391        48.32863
     2007.96167       -24.76066        48.44646
     2007.96440       -43.41742        48.49065
     2007.96714       -36.98717        49.68377
     2007.96988       -45.88893        46.89247
     2007.97262       -46.57268        47.79099
     2007.97535       -42.70144        47.70997
     2007.97809       -35.07619        47.79835
     2007.98083       -33.83295        47.24598
     2007.98357       -36.68070        47.15024
     2007.98631       -33.89246        48.07822
     2007.98904       -29.56321        47.51848
     2007.99178       -24.52897        48.08558
     2007.99452       -35.52972        47.95301
     2007.99726       -39.31048        45.47104
     2008.00000       -39.49523        47.44484
     2008.00273       -40.25298        47.37855
     2008.00547       -33.19774        46.36956
     2008.00821       -27.65049        46.40638
     2008.01095        17.89175        47.20916
     2008.08213       167.76512        48.88836
     2008.08487       188.17837        50.75169
     2008.08761       189.30661        51.49554
     2008.09034       231.10386        52.82123
     2008.09308       237.86411        52.59292
     2008.09582       244.63535        53.29258
     2008.09856       244.85260        55.09699
     2008.10130       241.31184        54.19847
     2008.10677       245.44633        52.70339
     2008.10951       220.54958        51.12730
     2008.11225       215.65982        54.12482
     2008.11498       187.52407        63.97909
     2008.11772       247.36531        65.41525
     2008.12046       204.58156        55.73774
     2008.12320       197.79880        57.43167
     2008.12594       236.67305        59.59696
     2008.12867       241.61629        64.06010
     2008.13689       252.29903        54.82449
     2008.13963       261.89027        55.98078
     2008.14510       248.20076        54.74347
     2008.14784       247.47001        57.61579
     2008.15058       282.79925        60.94474
     2008.16427       277.30048        98.04186
     2008.16700       237.43672        84.33574
     2008.16974       204.43997        80.66064
     2008.17248       235.32821        85.58777
     2008.17796       280.36571        85.05750
     2008.18069       239.57595        79.05509
     2008.18343       225.64320        77.20649
     2008.18617       262.88044        73.57558
     2008.18891       211.64969        89.49855
     2008.19712       244.83242        88.26124
     2008.20260       181.58991        75.36526
     2008.20533       199.61916        72.99375
     2008.20807       193.71740        76.33006
     2008.21621       195.42743        64.54619
     2008.40794       -25.96370        49.75742
     2008.41067       -28.73446        48.93255
     2008.41341       -26.25721        49.18296
     2008.41615       -28.90797        49.05775
     2008.41889       -28.04472        47.51848
     2008.42162       -36.83848        48.80735
     2008.42436       -31.74023        48.45383
     2008.42710       -35.16299        47.75416
     2008.42984       -30.96574        47.55531
     2008.43258       -24.73950        49.07248
     2008.43531       -27.58725        48.47592
     2008.43805       -28.05301        49.69850
     2008.44079       -40.18976        47.45957
     2008.44353       -32.15451        47.17233
     2008.44626       -30.62627        47.89410
     2008.44900       -29.49702        47.54794
     2008.45174       -27.95378        47.23862
     2008.45448       -29.67953        48.77052
     2008.45722       -27.37229        47.87200
     2008.45995       -27.74304        47.43747
     2008.46269       -30.37980        47.03976
     2008.46543       -31.71755        48.12241
     2008.46817       -24.84931        47.60686
     2008.47091       -28.22006        47.23125
     2008.47364       -18.65482        47.10605
     2008.47638       -21.90757        46.81145
     2008.47912       -26.75733        46.77463
     2008.48186       -26.01908        46.45057
     2008.48459       -23.17184        48.68951
     2008.48733       -23.80359        46.12651
     2008.49007       -31.28535        47.13551
     2008.49281       -28.18010        46.87774
     2008.49555       -36.51586        46.09705
     2008.49828       -27.68061        46.28118
     2008.50102       -27.17737        46.52422
     2008.50376       -23.52212        47.59213
     2008.50650       -23.68888        46.59787
     2008.50924       -32.81163        46.89983
     2008.51197       -24.39239        46.95875
     2008.51471       -18.57214        48.62322
     2008.51745       -17.17990        47.01030
     2008.52019       -16.21565        48.04139
     2008.52292       -20.07641        47.87937
     2008.52566       -24.81316        47.37119
     2008.52840       -24.12892        48.00457
     2008.53114       -11.24067        47.97511
     2008.53388       -12.50842        48.36545
     2008.53661       -19.22018        48.68214
     2008.53935       -27.41193        47.47429
     2008.54209       -27.66969        46.50213
     2008.54483       -15.92644        49.24188
     2008.54757       -16.40020        48.18869
     2008.55030       -17.98195        47.87200
     2008.55304       -19.89671        48.86627
     2008.55578       -19.85746        47.83518
     2008.55852       -26.38722        47.51112
     2008.56125       -17.67897        47.29754
     2008.56399       -16.55473        47.76889
     2008.56673       -17.84448        47.48902
     2008.56947       -24.70924        46.61996
     2008.57221       -18.50699        46.77463
     2008.57494       -20.18475        49.18296
     2008.57768       -15.84750        47.43747
     2008.58042       -12.89126        47.12078
     2008.58316       -18.15401        48.34336
     2008.58590       -11.32477        47.20916
     2008.58863       -23.23552        48.17396
     2008.59137       -15.62328        46.28118
     2008.59411       -19.15103        47.85727
     2008.59685       -34.17179        47.62159
     2008.59958       -18.86754        50.61912
     2008.60232       -22.09230        49.77952
     2008.60506       -22.50005        47.00294
     2008.60780       -17.58581        47.32700
     2008.61054       -22.83656        48.17396
     2008.61327        -8.69632        49.58803
     2008.61601       -19.98907        49.31553
     2008.61875       -18.71983        48.74843
     2008.62149       -22.80458        48.68951
     2008.62423       -13.70833        49.78688
     2008.62696       -21.52909        48.63795
     2008.62970       -11.11984        49.16823
     2008.63244       -24.66360        47.85727
     2008.63518       -24.46135        47.02503
     2008.63791       -17.37811        47.04713
     2008.64065       -16.18686        47.40065
     2008.64339       -14.87162        48.31390
     2008.64613       -17.59337        49.07248
     2008.64887       -25.68713        47.58477
     2008.65160       -15.56988        47.88673
     2008.65434       -13.34364        48.56430
     2008.65708       -20.61139        50.43499
     2008.65982       -22.92915        48.93991
     2008.66256       -17.46890        47.78362
     2008.66529       -21.57366        48.71160
     2008.66803       -20.09641        49.03566
     2008.67077       -27.15317        48.92518
     2008.67351       -16.15992        48.63795
     2008.67624       -19.45868        51.82696
     2008.67898       -21.23443        49.17559
     2008.68172       -20.93519        48.05612
     2008.68446       -18.76094        49.08721
     2008.68720       -21.68570        48.98410
     2008.68993       -15.22245        48.97674
     2008.69267       -27.73621        48.07822
     2008.69541       -22.34896        47.22389
     2008.69815       -17.66972        49.15350
     2008.70089       -20.63047        47.93092
     2008.70362       -15.60923        48.19606
     2008.70636       -17.27698        48.57903
     2008.70910       -21.16074        48.77789
     2008.71184       -22.16849        49.41863
     2008.71457       -18.15424        48.00457
     2008.71731       -24.46300        47.24598
     2008.72005       -16.67975        47.24598
     2008.72279       -23.54151        46.89983
     2008.72553       -22.45826        48.18869
     2008.72826       -20.65202        48.75579
     2008.73100       -21.31277        48.28444
     2008.73374       -15.72353        48.63795
     2008.73648       -17.46328        46.87037
     2008.73921       -19.35904        47.52585
     2008.74469       -20.86155        48.06349
     2008.74743       -18.11130        47.94565
     2008.75017       -15.04606        47.97511
     2008.75290       -20.55381        48.41701
     2008.75564       -17.19357        47.90146
     2008.75838       -34.61932        49.99310
     2008.76112       -25.00308        48.24025
     2008.76386       -26.65683        48.59376
     2008.76659       -20.07059        48.84417
     2008.76933       -30.18934        47.40801
     2008.77207       -30.26410        46.55368
     2008.77481       -28.28685        45.75090
     2008.77754       -28.31261        46.70098
     2008.78028       -25.82736        46.00868
     2008.78302       -30.73812        46.68625
     2008.78576       -29.66787        46.03077
     2008.78850       -26.31963        46.82618
     2008.79123       -22.21338        46.78936
     2008.79397       -36.12214        46.47267
     2008.79671       -25.64289        46.66415
     2008.79945       -27.71364        46.34746
     2008.80219       -23.01840        45.92766
     2008.80492       -26.61815        46.03813
     2008.80766       -25.49091        46.93666
     2008.81040       -25.72166        46.81882
     2008.81314       -25.19242        45.83192
     2008.81587       -24.15817        46.81882
     2008.81861       -33.37593        46.40638
     2008.82135       -30.85368        46.76726
     2008.82409       -26.66344        47.73943
     2008.82683       -26.27019        47.53321
     2008.82956       -27.90495        46.33273
     2008.83230       -26.71270        48.36545
     2008.83504       -29.18846        48.38755
     2008.83778       -55.69121        48.99147
     2008.84052       -28.49097        49.52174
     2008.84325       -33.81872        48.60849
     2008.84599       -37.46448        47.88673
     2008.84873       -39.80923        48.32126
     2008.85147       -31.30899        48.15923
     2008.85420       -36.72574        48.40228
     2008.85694       -41.57950        48.59376
     2008.85968       -35.37225        47.23862
     2008.86242       -34.06501        48.05612
     2008.86516       -37.07276        48.66005
     2008.86789       -33.68952        47.93092
     2008.87063       -29.64727        48.99147
     2008.87337       -37.07603        46.98821
     2008.87611       -33.50778        47.19443
     2008.87885       -34.35254        47.45220
     2008.88158       -26.03429        47.62896
     2008.88432       -31.79805        48.11504
     2008.88706       -36.59480        48.35809
     2008.88980       -33.99855        47.80572
     2008.89253       -28.80531        47.67315
     2008.89527       -26.88406        47.84254
     2008.89801       -21.63982        49.35972
     2008.90075       -31.78257        48.96937
     2008.90349       -33.96033        48.28444
     2008.90622       -33.61408        47.50375
     2008.90896       -25.59484        47.69524
     2008.91170       -36.18759        47.59213
     2008.91444       -25.17935        48.14450
     2008.91718       -26.70010        46.89247
     2008.91991       -25.98286        47.06922
     2008.92265       -28.24561        47.45220
     2008.92539       -26.67537        47.29017
     2008.92813       -28.44912        46.78936
     2008.93086       -33.31688        47.53321
     2008.93360       -24.36463        46.97348
     2008.93634       -29.71539        47.25335
     2008.93908       -30.84514        46.60523
     2008.94182       -32.93890        46.51685
     2008.94455       -36.85965        47.37119
     2008.94729       -28.54841        47.36382
     2008.95003       -32.45316        46.09705
     2008.95277       -31.29892        45.47104
     2008.95551       -24.29167        44.86711
     2008.95824       -36.16843        45.84665
     2008.96098       -29.30618        46.13388
     2008.96372       -32.16794        46.31064
     2008.96646       -37.39069        48.40228
     2008.96919       -38.71745        45.80246
     2008.97193       -36.02720        46.84828
     2008.97467       -35.88696        46.95875
     2008.97741       -34.57371        46.90720
     2008.98015       -31.35446        47.22389
     2008.98288       -33.06822        47.15024
     2008.98562       -34.39797        45.21326
     2008.98836       -41.80273        45.92766
     2008.99110       -35.15448        46.26645
     2008.99384       -37.03524        49.01356
     2008.99657       -38.08399        47.84254
     2008.99931       -47.29875        46.86301
     2009.00479       -37.78026        47.48902
     2009.00752       -28.25201        45.35320
     2009.01026       -30.84777        46.12651
     2009.01300       -31.62952        46.40638
     2009.01574       -48.75128        46.24435
     2009.01848       -41.02303        47.17233
     2009.02121       -40.63379        47.82045
     2009.02395       -35.71854        48.27707
     2009.02669       -41.85030        47.74680
     2009.02943       -45.53205        47.24598
     2009.03216       -43.47181        47.03976
     2009.03490       -41.71156        47.45220
     2009.03764       -37.47232        48.55694
     2009.04038       -41.04707        48.90309
     2009.04312       -41.50683        48.32863
     2009.04585       -48.11458        46.83355
     2009.04859       -44.97234        46.32537
     2009.05133       -45.74009        47.53321
     2009.05407       -42.93985        46.95875
     2009.05681       -44.66160        48.13714
     2009.05954       -57.53736        46.80409
     2009.06228       -40.90011        47.60686
     2009.06502       -47.80686        47.44484
     2009.06776       -47.12062        47.15024
     2009.12525        18.08953        46.39902
     2009.12799        49.57077        46.84828
     2009.13073        41.58402        49.96364
     2009.13347        40.81226        47.20179
     2009.13620        25.67451        48.01930
     2009.13894        28.90275        47.80572
     2009.14168        18.85400        48.74106
     2009.14442        28.86524        47.75416
     2009.14715       105.18349        50.43499
     2009.20739       120.53688        77.84724
     2009.21013        72.77013        96.37738
     2009.22108        71.64611        89.32179
     2009.22381        79.25035        88.53374
     2009.22655        18.24160        86.16960
     2009.22929        95.73884        92.65073
     2009.23203        81.63009        99.60322
     2009.24024       162.19682        85.22689
     2009.24298       163.05307        71.07151
     2009.24572       184.81832        84.86601
     2009.24846       171.84956        77.58210
     2009.25119       167.27481        80.79321
     2009.25393       195.69005        68.08871
     2009.25667       171.65930        65.17957
     2009.25941       179.72654        65.44471
     2009.26214       182.20179        69.87103
     2009.26488       193.97903        68.20655
     2009.26762       204.33128        59.96520
     2009.27036       226.22652        56.73200
     2009.27310       223.71777        57.46850
     2009.27583       229.59601        61.14359
     2009.27857       226.09326        68.19919
     2009.28131       161.85950        92.93797
     2009.28405       233.15275        66.66728
     2009.29226       279.41048        69.27447
     2009.29500       263.48273        71.85956
     2009.29774       292.04497        67.37432
     2009.30047       289.85022        65.41525
     2009.30321       274.31046        63.19841
     2009.30869       279.17295        60.03149
     2009.31690       250.26769        61.36454
     2009.31964       247.51593        55.88504
     2009.32238       240.83018        54.38996
     2009.32512       228.02942        52.62238
     2009.32785       222.18767        58.09451
     2009.33059       198.70992        71.64597
     2009.33880       242.96665        75.20323
     2009.36071       245.10261        55.10436
     2009.36344       234.39486        52.90224
     2009.36618       236.12910        52.85069
     2009.37166       224.35659        50.78115
     2009.37440       200.22284        50.55283
     2009.39904       -31.64596        48.60113
     2009.40177       -26.33771        48.26234
     2009.40451       -29.30347        50.00783
     2009.40725       -27.91522        49.66904
     2009.40999       -40.00498        51.38507
     2009.41273       -29.72773        49.69114
     2009.41546       -31.46149        48.99883
     2009.41820       -22.99124        50.02256
     2009.42094       -30.77399        50.89898
     2009.42368       -39.60975        50.33189
     2009.42642       -33.44850        49.13877
     2009.42915       -26.63526        50.59702
     2009.43189       -28.91701        48.94728
     2009.43463       -28.86977        48.28444
     2009.43737       -25.10252        47.83518
     2009.44010       -39.05128        48.83681
     2009.44284       -36.67603        48.40964
     2009.44558       -35.35979        48.46856
     2009.44832       -36.25154        47.42274
     2009.45106       -23.77730        47.83518
     2009.45379       -37.54305        48.60113
     2009.45653       -19.22081        48.65268
     2009.45927       -26.94256        48.03403
     2009.46201       -27.04132        48.10031
     2009.46475       -29.16707        48.02666
     2009.46748       -26.92783        48.99883
     2009.47022       -27.29158        49.18296
     2009.47296       -28.17634        47.80572
     2009.47570       -20.20709        47.23125
     2009.47843       -31.36185        47.52585
     2009.48117       -26.44360        47.07659
     2009.48391       -27.68336        48.71160
     2009.48665       -37.46411        47.57740
     2009.48939       -30.45287        47.77626
     2009.49212       -23.00462        48.80735
     2009.49486       -31.82338        48.32863
     2009.49760       -32.02313        48.99883
     2009.50034       -23.16989        48.57167
     2009.50308       -19.71764        47.26071
     2009.50581       -25.72040        47.29754
     2009.50855       -31.45415        46.76726
     2009.51129       -27.06590        47.62159
     2009.51403       -20.12566        47.21652
     2009.51676       -25.28141        47.09868
     2009.51950       -20.84317        46.70098
     2009.52224       -30.98392        47.19443
     2009.52498       -29.66068        47.12078
     2009.52772       -29.20943        46.79672
     2009.53045       -28.77919        47.80572
     2009.53319       -28.68594        47.26808
     2009.53593       -25.17070        46.96612
     2009.53867       -27.60945        48.29180
     2009.54141       -33.05621        48.01930
     2009.54414       -24.30496        47.38592
     2009.54688       -15.22272        47.69524
     2009.54962       -22.90447        47.49639
     2009.55236       -27.13823        47.73943
     2009.55509       -20.38198        48.05612
     2009.55783       -26.75074        46.89247
     2009.56057       -21.66549        48.57903
     2009.56331       -26.06325        49.18296
     2009.56605       -28.63700        48.51275
     2009.56878       -20.60776        48.13714
     2009.57152       -21.24851        48.80735
     2009.57426       -30.53427        48.38755
     2009.57700       -13.55102        51.38507
     2009.57974       -14.57678        48.29917
     2009.58247        -5.81053        48.10768
     2009.58521       -24.41929        49.35235
     2009.58795       -28.93904        47.84991
     2009.59069       -25.35480        49.31553
     2009.59342       -21.17955        49.95627
     2009.59616       -19.63030        48.78525
     2009.59890       -20.49006        48.49065
     2009.60164       -27.03581        48.54957
     2009.60438       -30.50857        48.01930
     2009.60711       -16.63432        49.83107
     2009.60985       -21.75008        49.22715
     2009.61259       -22.87783        48.04876
     2009.61533       -28.80659        49.08721
     2009.61807       -18.72634        49.44073
     2009.62080       -16.05310        48.77052
     2009.62354       -19.86585        49.31553
     2009.62628       -16.92261        48.90309
     2009.62902       -19.32436        48.63059
     2009.63175       -23.19812        48.57167
     2009.63449       -24.19187        49.07985
     2009.63723       -28.32063        49.62485
     2009.63997       -29.41338        49.60276
     2009.64271       -28.10914        48.59376
     2009.64544       -21.29589        47.82781
     2009.64818       -26.25165        48.92518
     2009.65092       -20.05440        48.33599
     2009.65366       -22.78816        48.36545
     2009.65639       -30.89991        49.66168
     2009.65913       -19.18467        47.58477
     2009.66187       -25.32442        47.99720
     2009.66461       -23.68818        48.67478
     2009.66735       -24.73793        48.01193
     2009.67008       -19.99269        48.22552
     2009.67282       -26.03644        48.40228
     2009.67556       -19.48920        48.09295
     2009.67830       -23.92895        49.17559
     2009.68104       -19.79071        48.49065
     2009.68377       -22.55746        47.65842
     2009.68651       -15.86221        48.96201
     2009.68925       -12.75597        49.17559
     2009.69199       -28.10872        47.93829
     2009.69472       -21.97248        48.46856
     2009.69746       -22.64423        47.54794
     2009.70020       -16.06199        49.33026
     2009.70294       -21.07374        49.86053
     2009.70568       -27.40550        48.93991
     2009.70841       -25.50525        48.81471
     2009.71115       -27.14501        48.72633
     2009.71389       -14.51776        49.98573
     2009.71663       -22.95952        48.79262
     2009.71937       -15.62227        48.69687
     2009.72210       -27.24703        49.16823
     2009.72484       -23.06678        49.28607
     2009.72758       -23.99854        48.24025
     2009.73032       -22.55429        48.64532
     2009.73305       -21.47205        50.37607
     2009.73579       -19.98880        49.21978
     2009.73853       -21.91956        48.08558
     2009.74127       -19.44331        48.85154
     2009.74401       -18.62907        49.81634
     2009.74674       -30.43182        48.44646
     2009.74948       -30.11958        49.10194
     2009.75222       -23.85333        48.15187
     2009.75496       -25.33809        48.15187
     2009.75770       -22.62284        47.50375
     2009.76043       -26.92060        47.87937
     2009.76317       -26.40435        48.30653
     2009.76591       -26.40611        47.90883
     2009.76865       -24.26186        48.40964
     2009.77138       -22.73462        47.96774
     2009.77412       -19.84237        47.67315
     2009.77686       -23.31712        48.30653
     2009.77960       -22.00288        48.35072
     2009.78234       -21.40263        50.00783
     2009.78507       -14.87039        50.31716
     2009.78781       -18.84314        50.78115
     2009.79055       -30.56390        49.50701
     2009.79329       -40.60265        49.56593
     2009.79603       -33.10741        49.62485
     2009.79876       -32.56116        49.38181
     2009.80150       -26.21992        48.79998
     2009.80424       -23.06067        49.62485
     2009.80698       -23.79743        49.05039
     2009.80971       -24.17718        49.31553
     2009.81245       -24.07794        50.45709
     2009.81519       -22.54269        49.69850
     2009.81793       -19.47645        50.14040
     2009.82067       -30.04320        49.19769
     2009.82340       -21.09896        48.89573
     2009.82614       -26.64971        49.32289
     2009.82888       -28.29247        50.68540
     2009.83162       -27.95122        49.76479
     2009.83436       -21.69198        49.48492
     2009.83709       -28.89973        49.93418
     2009.83983       -23.90849        49.13140
     2009.84257       -26.74024        49.20505
     2009.84531       -31.58200        49.94891
     2009.84804       -24.21075        50.62648
     2009.85078       -27.32051        50.40553
     2009.85352       -16.10326        49.50701
     2009.85626       -26.05502        50.50128
     2009.85900       -31.46477        50.81061
     2009.86173       -29.33753        49.85317
     2009.86447       -21.93928        51.55446
     2009.86721       -23.86403        50.60439
     2009.86995       -23.32579        49.46282
     2009.87269       -26.39654        49.54384
     2009.87542       -25.05330        49.97100
     2009.87816       -21.31705        49.78688
     2009.88090       -28.09181        51.76805
     2009.88364       -24.64056        49.02093
     2009.88637       -22.08732        48.73370
     2009.88911       -16.52907        49.19769
     2009.89185       -29.53783        48.57903
     2009.89459       -24.92058        48.66741
     2009.89733       -39.72434        48.75579
     2009.90006       -31.23709        49.34499
     2009.90280       -30.65585        50.29506
     2009.90554       -30.47860        48.66741
     2009.90828       -26.96836        48.98410
     2009.91102       -29.94511        49.55857
     2009.91375       -28.87487        49.48492
     2009.91649       -27.35762        49.86053
     2009.91923       -34.71338        48.40228
     2009.92197       -33.19113        48.16660
     2009.92470       -26.19589        49.52911
     2009.92744       -30.38364        49.05039
     2009.93018       -27.67640        48.85154
     2009.93292       -23.55615        49.19032
     2009.93566       -25.53591        48.53484
     2009.93839       -29.65166        49.46282
     2009.94113       -28.33042        48.38018
     2009.94387       -33.30017        50.04465
     2009.94661       -31.34993        51.27460
     2009.94935       -53.68668        49.59539
     2009.95208       -38.58943        50.03729
     2009.95482       -40.86019        49.66904
     2009.95756       -50.67594        49.59539
     2009.96030       -47.07470        50.72959
     2009.96303       -41.10745        49.38181
     2009.96577       -41.87821        50.11094
     2009.96851       -47.08596        49.98573
     2009.97125       -35.52172        50.51601
     2009.97399       -39.67647        50.86216
     2009.97672       -41.31323        48.66005
     2009.97946       -38.22098        47.40065
     2009.98220       -38.18974        47.68051
     2009.98494       -34.12249        47.78362
     2009.98767       -36.17825        47.42274
     2009.99041       -29.81400        47.35646
     2009.99315       -29.63876        47.32700
     2009.99589       -38.71551        47.20916
     2009.99863       -31.72627        47.92356
     2010.00410       -35.71778        50.79588
     2010.00684       -30.05453        48.93255
     2010.00958       -30.62329        48.00457
     2010.01232       -45.29004        47.43011
     2010.01505       -31.30580        46.99557
     2010.01779       -39.01655        47.45957
     2010.02053       -43.06331        47.76153
     2010.02327       -36.52606        48.32863
     2010.02600       -38.31382        47.51848
     2010.02874       -34.54857        47.71734
     2010.03148       -37.22033        49.73533
     2010.03422         6.06192        52.68130
     2010.05886       164.60013        54.13219
     2010.06981       180.10911        57.52742
     2010.07255       190.36835        57.93249
     2010.07529       194.54360        56.84984
     2010.07802       177.98384        56.62153
     2010.08076       193.68709        54.14692
     2010.08350       186.89133        54.75084
     2010.08624       188.33358        53.38096
     2010.08898       201.29682        57.72627
     2010.09171       216.43007        56.71727
     2010.09445       213.73331        58.73526
     2010.09719       206.15656        61.54130
     2010.09993       232.48280        56.48160
     2010.10266       217.82405        58.28600
     2010.10540       214.35429        58.67634
     2010.10814       216.18154        60.84900
     2010.11088       226.66978        56.44477
     2010.11362       239.10603        58.24181
     2010.11635       215.53227        63.73605
     2010.11909       231.24552        59.06668
     2010.12183       217.67176        63.70659
     2010.12457       231.60401        64.16321
     2010.12731       235.14625        66.19593
     2010.13004       250.78550        63.93490
     2010.13278       190.59075        66.66728
     2010.13552       208.22604        67.13127
     2010.13826       204.42724        67.87513
     2010.14099       192.37948        64.81869
     2010.14373       223.82273        58.91939
     2010.14647       211.98897        56.33430
     2010.14921       237.03622        59.00776
     2010.15195       235.20546        60.67224
     2010.15468       240.46871        58.44067
     2010.15742       257.95095        61.03312
     2010.16016       267.23920        58.64688
     2010.16290       223.65644        63.13212
     2010.16564       245.73673        60.54703
     2010.16837       266.99693        61.44555
     2010.17111       268.08618        57.84411
     2010.18206       212.95516        66.04127
     2010.18480       222.69140        63.19104
     2010.18754       262.05165        61.32772
     2010.19028       245.56589        62.50610
     2010.19301       266.34414        61.94637
     2010.20397       276.12117        82.92904
     2010.20670       285.32432       103.47717
     2010.21765       260.24834        94.15318
     2010.22039       276.70759        76.49209
     2010.50349       -35.71819       116.31423
     2010.50513       -20.99091        48.26971
     2010.50787       -17.38967        48.49065
     2010.51060       -22.76842        47.86464
     2010.51334       -13.15418        48.46119
     2010.51608       -17.09393        48.60849
     2010.51882       -14.93469        48.01930
     2010.52156       -12.72944        48.63059
     2010.52429        -8.47920        48.16660
     2010.52703       -14.13895        48.55694
     2010.52977       -21.96371        48.04876
     2010.53251       -14.06746        48.68951
     2010.53525        -9.63622        47.86464
     2010.53798       -24.31897        47.44484
     2010.54072       -23.71573        48.30653
     2010.54346       -33.06448        47.84991
     2010.54620       -24.53124        47.62159
     2010.54893       -18.48099        47.59950
     2010.55167       -28.04275        46.21489
     2010.55441       -27.34950        48.05612
     2010.55715       -31.77226        46.64942
     2010.55989       -22.51201        46.90720
     2010.56262       -29.83077        47.21652
     2010.56536       -14.09952        47.26808
     2010.56810       -25.72828        48.88100
     2010.57084       -25.39503        47.86464
     2010.57357       -27.82078        47.62896
     2010.57631       -30.86354        47.05449
     2010.57905       -25.03729        45.97922
     2010.58179       -22.99805        47.09132
     2010.58453       -28.77180        46.95875
     2010.58726       -32.13956        48.30653
     2010.59000       -26.56131        47.94565
     2010.59274       -19.83207        47.73207
     2010.59548       -13.66082        47.21652
     2010.59822       -19.92158        47.35646
     2010.60095       -22.78733        47.26071
     2010.60369       -27.79909        46.81882
     2010.60643       -30.93784        46.53895
     2010.60917       -11.58760        47.59950
     2010.61190       -20.70435        47.06922
     2010.61464       -20.54311        46.49476
     2010.61738       -25.68586        46.03077
     2010.62012       -21.50662        46.51685
     2010.62286       -18.54437        48.64532
     2010.62559       -16.60813        47.93829
     2010.62833       -20.94188        47.75416
     2010.63107       -19.86064        47.45957
     2010.63381       -18.46939        46.38429
     2010.63655       -19.17615        47.31227
     2010.63928       -13.64090        47.27544
     2010.64202       -18.85366        46.84091
     2010.64476       -28.42641        46.60523
     2010.64750       -20.56317        46.81882
     2010.65023       -21.17892        47.98247
     2010.65297       -15.40368        49.61012
     2010.65571       -14.87743        46.73780
     2010.65845       -30.01419        47.03240
     2010.66119       -21.79194        46.50213
     2010.66392       -18.15369        46.95139
     2010.66666       -24.43545        46.83355
     2010.66940       -15.06420        46.61996
     2010.67214       -19.87696        45.60360
     2010.67488       -15.51071        45.43421
     2010.67761       -17.34447        46.08969
     2010.68035       -13.86922        46.38429
     2010.68309       -16.06198        45.78036
     2010.68583       -11.80773        46.38429
     2010.68856       -16.45649        45.78036
     2010.69130       -20.94224        45.69935
     2010.69404       -19.14200        46.14124
     2010.69678       -23.37475        46.19280
     2010.69952       -19.72551        45.78773
     2010.70225       -16.58526        45.90557
     2010.70499       -15.76302        45.72144
     2010.70773       -25.39777        45.29428
     2010.71047       -15.50153        45.91293
     2010.71321       -18.28328        45.27218
     2010.71594       -13.55504        46.59050
     2010.71868       -16.30779        45.40475
     2010.72142       -15.06155        46.08969
     2010.72416       -18.02930        46.33273
     2010.72689       -21.20606        46.06759
     2010.72963       -17.54081        45.05860
     2010.73237       -19.01257        46.50213
     2010.73511       -23.64432        45.74354
     2010.73785       -15.13808        46.31800
     2010.74058       -18.29283        45.84665
     2010.74332       -16.92159        45.48577
     2010.74606       -18.12934        46.49476
     2010.74880       -16.36610        46.22226
     2010.75154       -17.98385        45.30901
     2010.75427       -20.09060        46.60523
     2010.75701       -22.00636        46.55368
     2010.75975       -26.86811        46.59050
     2010.76249       -21.34587        46.73780
     2010.76522       -27.03762        45.64043
     2010.76796       -26.82338        45.73617
     2010.77070       -26.02713        45.88347
     2010.77344       -27.01889        46.21489
     2010.77618       -24.34064        46.79672
     2010.77891       -21.97040        45.69198
     2010.78165       -17.94715        45.50050
     2010.78439       -22.96991        46.01604
     2010.78713       -17.81166        47.03240
     2010.78987       -16.41942        45.96449
     2010.79260       -22.71817        46.43584
     2010.79534       -13.54793        45.97185
     2010.79808       -16.29768        46.13388
     2010.80082       -18.60944        46.08969
     2010.80355       -24.43519        45.78773
     2010.80629       -19.61595        46.73044
     2010.80903       -25.33970        46.14861
     2010.81177       -24.26346        47.28281
     2010.81451       -17.33821        46.31064
     2010.81724       -18.72297        45.70671
     2010.81998       -19.60572        46.29591
     2010.82272       -18.63548        47.12814
     2010.82546       -27.94223        46.91456
     2010.82820       -31.48399        46.64206
     2010.83093       -34.98974        50.01519
     2010.83367       -26.42350        48.58640
     2010.83641       -34.36025        46.84828
     2010.83915       -21.08001        46.00868
     2010.84188       -20.71876        46.26645
     2010.84462       -15.78051        46.04550
     2010.84736       -23.18127        45.86874
     2010.85010       -25.68102        47.15760
     2010.85284       -20.80778        46.09705
     2010.85557       -23.76053        45.22799
     2010.85831       -22.25929        46.36956
     2010.86105       -27.65804        46.00868
     2010.86379       -33.71280        45.80982
     2010.86653       -30.40255        46.43584
     2010.86926       -32.75131        46.74517
     2010.87200       -24.20106        45.42685
     2010.87474       -27.01382        47.41538
     2010.87748       -22.74157        46.61260
     2010.88021       -27.44633        46.28118
     2010.88295       -21.32308        46.06759
     2010.88569       -31.60884        44.32211
     2010.88843       -29.93459        46.67152
     2010.89117       -20.31135        47.01767
     2010.89390       -29.64710        45.56678
     2010.89664       -31.14386        45.64043
     2010.89938       -33.46861        45.16907
     2010.90212       -27.89337        45.83928
     2010.90485       -37.05912        45.19853
     2010.90759       -23.38088        44.85975
     2010.91033       -28.96263        44.92603
     2010.91307       -34.08339        45.72144
     2010.91581       -36.03714        45.29428
     2010.91854       -28.80490        46.09705
     2010.92128       -39.27565        45.41212
     2010.92402       -40.03441        46.10442
     2010.92676       -36.12916        48.04139
     2010.92950       -12.31291        47.62896
     2010.93223        -3.19167        47.08395
     2010.93497        -6.83142        47.44484
     2010.93771        11.33882        47.09132
     2010.94045       -13.53493        48.65268
     2010.94318       -26.25269        47.34173
     2010.94592       -36.51744        45.94976
     2010.94866       -30.59420        45.69198
     2010.95140       -34.30695        47.28281
     2010.95414       -35.14971        47.12078
     2010.95687       -28.30646        47.21652
     2010.95961       -32.63622        46.03813
     2010.96235        17.85503        47.90883
     2010.98425       113.24799        50.42763
     2010.98699       156.25323        52.87278
     2010.98973       159.02848        51.31142
     2010.99247       175.43672        53.02008
     2010.99520       176.11997        52.12893
     2010.99794       154.02421        50.53074
     2011.00342       170.91370        50.42763
     2011.00616       162.26995        50.67804
     2011.00889       153.62719        50.56756
     2011.01163       157.19144        50.29506
     2011.01437       149.64868        50.70750
     2011.01711       151.27393        55.24429
     2011.01984       149.12518        52.60028
     2011.02258       149.82542        48.80735
     2011.02532       138.63567        51.05365
     2011.02806       143.19591        52.43089
     2011.03080       160.08116        50.00046
     2011.03353       177.40140        60.13460
     2011.03901       202.72589        65.82768
     2011.04449       197.34938        86.14751
     2011.04996       192.82187        56.56998
     2011.05270       187.07912        53.79340
     2011.05544       185.64036        56.36376
     2011.06091       207.06285        51.84169
     2011.06365       183.33710        53.21157
     2011.06639       181.75134        52.53400
     2011.06913       157.27459        54.72138
     2011.07186       162.07283        50.75905
     2011.07460       156.69608        49.65431
     2011.07734       159.94032        49.27134
     2011.08008       172.86257        48.33599
     2011.08282       176.66081        49.10931
     2011.08555       164.66606        49.99310
     2011.08829       144.20330        48.64532
     2011.09103       139.08455        49.40390
     2011.09377       153.82879        50.53810
     2011.09650       148.57704        49.63222
     2011.09924       144.32028        50.54547
     2011.56741       -20.54079        48.48329
     2011.57015       -20.61555        49.20505
     2011.57289       -18.57830        47.66578
     2011.57563       -12.53606        47.89410
     2011.57837       -18.35981        49.97837
     2011.58110       -16.76557        48.82944
     2011.58384       -22.32532        48.26234
     2011.58658       -11.96508        49.86053
     2011.58932       -16.94683        48.08558
     2011.59206        -8.59559        48.64532
     2011.59479        -7.37934        48.92518
     2011.59753        -8.12010        47.87200
     2011.60027       -15.98685        48.96937
     2011.60301       -14.65761        48.19606
     2011.60574       -13.03936        49.82371
     2011.60848       -11.83712        52.37197
     2011.61122        -5.73887        52.01845
     2011.61396       -12.46663        49.07248
     2011.61670       -16.08238        49.80898
     2011.61943       -16.82014        49.94154
     2011.62217       -11.81189        49.63222
     2011.62491       -18.85965        49.46282
     2011.62765       -11.23540        48.77052
     2011.63039       -11.66216        49.56593
     2011.63312        -8.81491        48.50538
     2011.63586       -11.15967        49.37445
     2011.63860       -10.40442        48.75579
     2011.64134       -12.66017        50.18459
     2011.64407        -4.51993        48.99147
     2011.64681        -3.34068        48.56430
     2011.64955       -15.65344        49.20505
     2011.65229       -15.56619        48.91045
     2011.65503       -15.37995        49.14613
     2011.65776        -8.93070        49.79425
     2011.66050       -10.50546        51.06838
     2011.66324        -8.09721        49.69850
     2011.66598       -10.85997        49.55857
     2011.66872       -12.29772        49.70587
     2011.67145        -7.82848        48.45383
     2011.67419        -9.18623        48.21815
     2011.67693        -9.08399        49.15350
     2011.67967       -10.64174        49.65431
     2011.68240       -11.68350        48.91045
     2011.68514       -15.10225        48.99147
     2011.68788        -6.03401        50.30243
     2011.69062        -5.92676        48.62322
     2011.69336        -3.01352        49.34499
     2011.69609       -12.99727        50.30243
     2011.69883       -18.12903        49.94154
     2011.70157       -15.25778        49.86053
     2011.70431       -10.40354        49.63958
     2011.70705       -11.76429        49.95627
     2011.70978       -10.47105        49.32289
     2011.71252       -11.10380        49.21242
     2011.71526       -16.37056        49.49965
     2011.71800        -9.26631        50.45709
     2011.72073        -8.82307        49.29343
     2011.72347       -15.28582        48.38018
     2011.72621        -7.98558        48.49802
     2011.72895       -14.58533        48.79998
     2011.73169       -15.80708        49.91208
     2011.73442       -10.82984        49.05775
     2011.73716       -10.93759        48.29180
     2011.73990       -13.70935        49.58803
     2011.74264       -11.27010        48.95464
     2011.74538       -15.30886        50.64858
     2011.74811        -8.30161        50.13303
     2011.75085       -11.86637        49.01356
     2011.75359       -12.14012        49.29343
     2011.75633       -17.56788        50.37607
     2011.75906       -17.27663        48.30653
     2011.76180       -20.98039        48.90309
     2011.76454       -17.24214        49.75742
     2011.76728       -17.18490        49.16086
     2011.77002       -22.28165        49.40390
     2011.77275        -7.72341        50.03729
     2011.77549       -28.34516        49.22715
     2011.77823       -15.94392        48.98410
     2011.78097       -17.98267        48.89573
     2011.78371       -20.99343        49.66168
     2011.78644       -14.37718        49.06512
     2011.78918       -18.18694        49.18296
     2011.79192       -25.79969        47.77626
     2011.79466       -23.01845        48.01930
     2011.79739       -22.26820        48.41701
     2011.80013       -18.55996        47.90883
     2011.80287       -22.36971        48.00457
     2011.80561       -21.58247        48.32126
     2011.80835       -24.16122        47.67315
     2011.81108       -13.51698        48.77789
     2011.81382       -24.50373        48.24761
     2011.81656       -19.88548        47.90146
     2011.81930       -23.08224        47.36382
     2011.82203       -18.20399        47.37855
     2011.82477       -29.52075        47.23862
     2011.82751       -17.68250        47.37855
     2011.83025       -20.99026        47.61423
     2011.83299       -21.86201        46.79672
     2011.83572       -26.03177        47.30490
     2011.83846       -20.18652        47.52585
     2011.84120       -36.07528        46.62733
     2011.84394       -17.12703        47.07659
     2011.84668       -27.86279        46.87037
     2011.84941       -33.20354        47.79835
     2011.85215       -24.99830        47.57740
     2011.85489       -26.21005        47.72470
     2011.85763       -18.30281        47.88673
     2011.86036       -18.51656        47.74680
     2011.86310       -11.22232        49.06512
     2011.86584       -14.94507        47.59950
     2011.86858       -16.48483        47.27544
     2011.87132       -30.89158        47.24598
     2011.87405       -30.47834        47.27544
     2011.87679       -37.22109        47.27544
     2011.87953       -20.64385        47.46693
     2011.88227       -16.53960        47.73943
     2011.88501       -27.85436        47.53321
     2011.88774       -32.84211        47.75416
     2011.89048       -32.92987        49.08721
     2011.89322       -27.13662        51.16412
     2011.89596       -26.34738        49.35972
     2011.89869       -28.43013        49.24188
     2011.90143       -29.49889        47.51112
     2011.90417       -30.52364        47.15024
     2011.90691       -27.36839        47.70997
     2011.90965       -22.13715        47.19443
     2011.91238       -23.04590        49.08721
     2011.91512       -20.80466        47.02503
     2011.91786       -25.20941        48.60113
     2011.92060       -31.59417        47.38592
     2011.92334       -35.56392        47.96038
     2011.92607       -31.11368        47.83518
     2011.92881       -28.33443        48.10768
     2011.93155       -23.38619        48.07085
     2011.93429       -18.62294        47.51848
     2011.93702       -24.68270        48.17396
     2011.93976       -18.75145        48.47592
     2011.94250       -18.51721        47.94565
     2011.94524       -19.98996        47.90883
     2011.94798       -21.95772        47.63632
     2011.95071       -27.12847        46.99557
     2011.95345       -16.88223        48.49065
     2011.95619       -22.08498        48.45383
     2011.95893       -26.67774        46.86301
     2011.96167       -24.95149        46.84828
     2011.96440       -27.44725        47.92356
     2011.96714       -22.17200        46.09705
     2011.96988       -16.52976        46.84091
     2011.97262       -23.58051        46.92929
     2011.97535       -24.90727        47.61423
     2011.97809       -27.39602        46.75253
     2011.98083       -24.25778        46.17807
     2011.98357       -18.31153        46.98085
     2011.98631       -27.42829        46.90720
     2011.98904       -29.40204        47.82045
     2011.99178       -28.15180        47.30490
     2011.99452       -31.17655        48.78525
     2011.99726       -22.42230        46.75253
     2012.00273       -21.00681        46.08969
     2012.00547       -27.75157        46.36956
     2012.00821       -28.15432        46.05286
     2012.01095       -18.72808        47.54794
     2012.01368       -22.61383        48.01930
     2012.01642       -20.63959        46.69361
     2012.01916       -19.85434        46.43584
     2012.02190       -18.69910        46.02341
     2012.02464       -19.42585        46.22962
     2012.02737       -26.19061        46.52422
     2012.03011       -23.02236        46.76726
     2012.03285       -22.29312        46.24435
     2012.03559       -28.86887        46.98821
     2012.03833       -25.17563        46.40638
     2012.04106       -23.27138        46.25172
     2012.04380       -26.12014        46.07496
     2012.04654       -28.47989        46.67152
     2012.04928       -19.84565        45.76563
     2012.05201       -22.93740        46.40638
     2012.05475       -22.75416        49.12404
     2012.05749       -20.76991        49.47755
     2012.06023       -26.09767        50.02256
     2012.06297       -26.77742        46.95139
     2012.06570       -40.99018        47.68051
     2012.06844       -47.96293        46.78936
     2012.07118       -32.15469        46.06759
     2012.07392       -26.73244        46.08232
     2012.07666       -31.53220        45.37529
     2012.07939       -24.88495        46.09705
     2012.08213       -25.22870        45.44158
     2012.08487       -31.96646        46.61996
     2012.08761       -29.28421        46.08969
     2012.09034       -33.12697        45.44158
     2012.09308       -30.25672        45.17644
     2012.09582       -27.02948        45.76563
     2012.09856       -19.55823        46.07496
     2012.10130       -24.65199        46.86301
     2012.10403       -37.33074        45.92030
     2012.10677       -34.29450        46.97348
     2012.10951       -23.19425        48.07085
     2012.11225       -28.51001        47.81308
     2012.11498       -32.58976        47.14287
     2012.11772       -28.07452        45.75827
     2012.12046       -26.63027        45.77300
     2012.12320       -26.87703        47.15024
     2012.12594       -37.44278        46.70098
     2012.12867       -35.96454        47.31963
     2012.13141       -40.48729        46.17070
     2012.13415       -33.03005        46.19280
     2012.13689       -30.08880        47.45957
     2012.13963       -35.67556        48.25498
     2012.14236       -35.45331        47.59950
     2012.14510       -29.65207        47.62159
     2012.14784       -30.90182        45.44894
     2012.15058       -33.29358        46.53895
     2012.15331       -33.35533        46.35483
     2012.15605       -30.83409        46.34010
     2012.15879       -43.30784        46.24435
     2012.16153       -31.89060        44.83765
     2012.16427       -37.48935        45.67725
     2012.16700       -15.12111        46.15597
     2012.16974       -31.06986        46.05286
     2012.17248       -31.64961        44.68299
     2012.17522       -32.65037        45.38266
     2012.17796       -34.82712        45.87611
     2012.18069       -38.67788        44.91867
     2012.18343       -37.01663        45.66252
     2012.18617       -28.72639        45.27955
     2012.18891       -33.52014        45.72144
     2012.19164       -21.91090        45.70671
     2012.19438       -38.90365        45.58887
     2012.19712       -21.86741        46.10442
     2012.19986        11.34284        47.51848
     2012.24366       202.58176        56.82775
     2012.24640       202.15300        70.45286
     2012.24914       221.34825        58.57323
     2012.25188       255.89449        60.02412
     2012.25735       338.93898        79.95361
     2012.26009       252.62823        68.80311
     2012.26283       266.63848        62.38826
     2012.26557       252.45472        66.43161
     2012.29021       274.00793        79.90205
     2012.29568       255.30142       117.99343
     2012.32854       342.56836        79.71056
     2012.33401       302.86885        76.36689
     2012.33675       293.90809        66.58627
     2012.34223       302.17158        70.20981
     2012.34770       282.35508        67.35222
     2012.35044       280.37832        67.19756
     2012.35318       253.11157        65.57728
     2012.39151       -27.89400        47.34909
     2012.39425       -35.55376        47.57740
     2012.39698       -37.60051        46.81882
     2012.39972       -40.19727        46.88510
     2012.40246       -42.26102        46.73780
     2012.40520       -31.58878        45.88347
     2012.40794       -33.16653        46.13388
     2012.41067       -33.80529        46.67888
     2012.41341       -30.68404        47.62896
     2012.41615       -24.19780        48.00457
     2012.41889       -21.33555        49.07248
     2012.42162       -39.73631        46.88510
     2012.42436       -26.44806        47.51112
     2012.42710       -34.42682        47.27544
     2012.42984       -27.22057        46.81145
     2012.43258       -27.27933        46.31800
     2012.43531       -29.20908        46.12651
     2012.43805       -32.56383        45.79509
     2012.44079       -35.74959        45.76563
     2012.44353       -32.97734        47.23862
     2012.44626       -29.92310        46.13388
     2012.44900       -23.31685        46.08969
     2012.45174       -24.68561        46.37692
     2012.45448       -25.59836        47.23125
     2012.45722       -26.49212        47.24598
     2012.45995       -24.89487        47.10605
     2012.46269       -16.50663        47.41538
     2012.46543       -26.08738        47.45220
     2012.46817       -24.96614        46.11178
     2012.47091       -27.57689        46.99557
     2012.47364       -24.22665        47.77626
     2012.47638       -20.27440        47.45957
     2012.47912       -20.88416        47.22389
     2012.48186       -21.65191        46.49476
     2012.48459       -25.46867        45.94976
     2012.48733       -26.90842        46.45057
     2012.49007       -23.93318        46.38429
     2012.49281       -21.30093        46.76726
     2012.49555       -23.20069        46.59787
     2012.49828       -19.98444        46.50213
     2012.50102       -18.69420        47.03240
     2012.50376       -11.59895        47.44484
     2012.50650       -16.41371        47.23862
     2012.50924       -16.13646        48.28444
     2012.51197       -24.36422        46.50949
     2012.51471       -24.42197        46.62733
     2012.51745       -13.79073        47.52585
     2012.52019       -22.60148        46.87774
     2012.52292       -19.44324        46.74517
     2012.52566       -21.50499        46.20753
     2012.52840       -17.15974        46.20753
     2012.53114       -16.51850        46.52422
     2012.53388       -20.26825        46.30327
     2012.53661       -26.66001        47.13551
     2012.53935       -15.43076        46.42111
     2012.54209       -14.39352        46.54631
     2012.54483       -22.87627        46.05286
     2012.54757       -10.37703        46.70098
     2012.55030       -18.88678        46.25172
     2012.55304       -17.90254        45.69935
     2012.55578       -14.31529        46.84828
     2012.55852       -20.75405        47.87200
     2012.56125       -10.94580        48.43910
     2012.56399       -12.44856        46.25908
     2012.56673       -20.47431        46.04550
     2012.56947       -16.68207        46.36956
     2012.57221       -15.90782        45.92030
     2012.57494       -21.93858        46.71571
     2012.57768       -18.99333        46.56841
     2012.58042       -14.56109        46.61996
     2012.58316       -21.30684        46.36956
     2012.58590       -17.70760        47.02503
     2012.58863       -20.07335        46.22962
     2012.59137       -16.55011        46.56104
     2012.59411       -18.30686        47.32700
     2012.59685       -19.78462        45.96449
     2012.59958       -12.94037        46.04550
     2012.60232       -18.53913        47.07659
     2012.60506       -16.67088        45.86138
     2012.60780       -18.01964        45.92030
     2012.61054       -14.65039        46.32537
     2012.61327       -13.91115        46.17807
     2012.61601        -7.05990        46.36956
     2012.61875        -3.76565        47.05449
     2012.62149       -19.88441        46.78199
     2012.62423       -12.19616        46.73044
     2012.62696       -11.19092        45.76563
     2012.62970       -17.14467        46.28118
     2012.63244       -20.78643        46.48003
     2012.63518       -13.10518        46.11915
     2012.63791       -17.43794        46.56104
     2012.64065       -12.95869        46.77463
     2012.64339       -10.34445        45.36793
     2012.64613        -7.02920        46.14861
     2012.64887       -15.58796        45.53732
     2012.65160       -18.08471        46.08969
     2012.65434       -21.88047        45.34583
     2012.65708        -8.29122        47.01767
     2012.65982       -10.79798        47.65842
     2012.66256        -9.10073        46.29591
     2012.66529       -12.08249        47.37855
     2012.66803       -19.47424        46.67152
     2012.67077        -4.24600        46.44321
     2012.67351       -12.24975        46.75253
     2012.67624        -9.19351        46.59050
     2012.67898       -12.94626        46.89247
     2012.68172       -11.00402        47.07659
     2012.68446       -17.64677        46.19280
     2012.68720       -13.06253        46.98085
     2012.68993        -7.61828        46.12651
     2012.69267       -14.49404        47.45220
     2012.69541       -13.80179        47.07659
     2012.69815       -14.83755        47.13551
     2012.70089       -20.86830        47.89410
     2012.70362       -16.40005        47.56267
     2012.70636       -16.77381        46.46530
     2012.70910       -21.95556        46.50949
     2012.71184       -17.06632        46.04550
     2012.71457       -14.15507        46.64206
     2012.71731       -12.60183        46.78936
     2012.72005       -12.33358        45.83192
     2012.72279       -16.88034        47.50375
     2012.72553       -17.00109        45.75827
     2012.72826       -19.27785        47.65105
     2012.73100       -15.32160        47.69524
     2012.73374       -24.81036        46.95875
     2012.73648       -14.03111        46.24435
     2012.73921       -14.08887        47.54058
     2012.74195        -8.08762        47.03240
     2012.74469       -16.50238        46.39902
     2012.74743       -13.04513        45.92030
     2012.75017       -15.41589        46.07496
     2012.75290       -10.50164        46.81145
     2012.75564       -13.70440        46.67152
     2012.75838       -23.67515        46.50213
     2012.76112       -15.04791        46.28854
     2012.76386       -18.79466        46.84091
     2012.76659       -10.55242        47.14287
     2012.76933        -8.60017        46.60523
     2012.77207       -15.54693        46.36219
     2012.77481       -13.51468        47.56267
     2012.77754       -24.51744        46.11178
     2012.78028       -16.54819        47.51112
     2012.78302       -19.91495        47.57740
     2012.78576       -20.46270        47.90146
     2012.78850       -11.02346        47.73207
     2012.79123       -28.10721        47.37855
     2012.79397       -17.02796        46.44321
     2012.79671       -12.23272        45.94976
     2012.79945       -16.56847        46.78936
     2012.80219        -8.90023        46.87774
     2012.80492       -17.16198        45.97922
     2012.80766       -17.47874        46.25908
     2012.81040       -18.37849        45.54469
     2012.81314       -26.11125        46.21489
     2012.81587       -28.86400        47.51848
     2012.81861       -26.24376        48.73370
     2012.82135       -36.67151        47.02503
     2012.82409       -21.31327        48.23288
     2012.82683       -20.17802        47.14287
     2012.82956       -25.73978        46.90720
     2012.83230       -24.79653        47.09868
     2012.83504       -30.79929        48.35072
     2012.83778       -22.23404        46.63469
     2012.84052       -23.39080        47.93829
     2012.84325       -19.90955        47.79099
     2012.84599       -29.83831        47.60686
     2012.84873       -25.06106        46.96612
     2012.85147       -24.22982        46.12651
     2012.85397       -21.13489        51.99636
     2013.44677       -44.47079       140.75105
     2013.44832       -24.45137        46.73044
     2013.45106       -18.97513        45.61833
     2013.45379       -21.28188        45.60360
     2013.45653       -25.83364        46.72307
     2013.45927       -25.62739        46.48003
     2013.46201       -17.96515        46.26645
     2013.46475       -21.14390        46.93666
     2013.46748       -20.90466        46.04550
     2013.47022       -18.75941        46.50213
     2013.47296       -19.32317        45.75827
     2013.47570       -24.87092        45.83192
     2013.47843       -21.33768        47.01767
     2013.48117       -23.79243        47.62896
     2013.48391       -21.63719        46.38429
     2013.48665       -23.34794        46.25172
     2013.48939       -17.70770        45.83928
     2013.49212       -14.53945        45.91293
     2013.49486       -17.07221        45.69935
     2013.49760       -12.49896        45.97185
     2013.50034       -20.11472        46.00131
     2013.50308        -7.95647        47.81308
     2013.50581       -14.89722        46.89247
     2013.50855       -14.98698        45.49313
     2013.51129        -7.87573        46.22962
     2013.51403       -12.44549        45.92766
     2013.51676       -12.22824        46.48003
     2013.51950       -18.73000        45.66989
     2013.52224       -14.05175        45.84665
     2013.52498       -11.78751        47.43011
     2013.52772        -9.49926        45.52259
     2013.53045       -16.80302        46.20016
     2013.53319       -21.08977        47.16497
     2013.53593       -15.06553        45.69935
     2013.53867       -17.47928        45.48577
     2013.54141       -16.47104        45.13225
     2013.54414       -12.57979        45.75090
     2013.54688       -15.94155        46.68625
     2013.54962        -4.21430        45.95712
     2013.55236       -16.81906        45.66252
     2013.55509       -13.81781        46.47267
     2013.55783       -15.08757        46.26645
     2013.56057       -16.03332        47.01030
     2013.56331       -14.38708        47.10605
     2013.56605       -13.15383        46.74517
     2013.56878        -8.94459        47.38592
     2013.57152        -7.27734        47.09868
     2013.57426        -6.48410        46.03077
     2013.57700       -13.19785        46.52422
     2013.57974       -17.65461        46.07496
     2013.58247       -10.86536        45.41948
     2013.58521       -10.82512        45.64043
     2013.58795       -11.97887        45.24272
     2013.59069        -5.11063        46.59050
     2013.59342        -8.70138        45.19853
     2013.59616        -4.83713        45.44894
     2013.59890       -13.81089        46.22962
     2013.60164       -11.65764        45.92030
     2013.60438        -7.71740        46.20753
     2013.60711       -11.29515        46.68625
     2013.60985        -8.21991        46.22226
     2013.61259        -5.37666        45.59624
     2013.61533        -8.22942        46.28854
     2013.61807        -5.60717        46.07496
     2013.62080        -3.63493        46.05286
     2013.62354        -7.49768        45.72881
     2013.62628        -9.50844        46.15597
     2013.62902       -11.27119        46.29591
     2013.63175        -3.25595        46.09705
     2013.63449       -12.06070        47.85727
     2013.63723        -1.98246        47.84991
     2013.63997        -5.73421        47.41538
     2013.64271       -14.46397        46.11915
     2013.64544       -12.63472        45.47840
     2013.64818       -10.06348        46.18543
     2013.65092        -9.90123        46.14861
     2013.65366       -10.62499        45.27955
     2013.65639       -10.31474        47.19443
     2013.65913       -12.80850        47.41538
     2013.66187       -11.54625        46.17807
     2013.66461       -11.55901        46.50949
     2013.66735       -11.83576        45.82455
     2013.67008        -0.48252        47.90883
     2013.67282       -15.02227        47.51112
     2013.67556       -16.09003        46.46530
     2013.67830       -10.13778        46.35483
     2013.68104        -9.16553        45.90557
     2013.68377       -10.41629        45.80982
     2013.68651       -10.96604        46.04550
     2013.68925        -9.98580        45.58151
     2013.69199        -8.60155        45.32374
     2013.69472        -9.01831        44.97022
     2013.69746       -18.34806        45.44158
     2013.70020        -2.72982        47.09868
     2013.70294       -11.30257        46.10442
     2013.70568       -13.73233        45.28691
     2013.70841       -11.69208        45.64779
     2013.71115        -2.21084        45.62570
     2013.71389        -9.01859        45.02178
     2013.71663        -5.22235        46.52422
     2013.71937       -15.40010        45.77300
     2013.72210        -4.49186        46.89983
     2013.72484        -6.93861        45.38266
     2013.72758       -12.67437        45.77300
     2013.73032        -7.91312        46.84091
     2013.73305       -11.50988        46.28854
     2013.73579       -15.18263        45.60360
     2013.73853       -21.02339        45.88347
     2013.74127       -11.73414        45.39002
     2013.74401       -14.01090        45.97922
     2013.74674        -5.70465        47.92356
     2013.74948       -19.38141        45.37529
     2013.75222       -21.26416        45.43421
     2013.75496       -24.00092        45.92766
     2013.75770       -18.97967        45.02914
     2013.76043       -17.66743        46.05286
     2013.76317       -16.23118        45.66989
     2013.76591       -18.56294        44.62407
     2013.76865       -12.51769        45.20590
     2013.77138       -11.34644        45.22063
     2013.77412       -14.27620        45.90557
     2013.77686       -17.71295        45.71408
     2013.77960       -22.18571        45.69935
     2013.78234       -21.98746        45.95712
     2013.78507       -19.51522        46.37692
     2013.78781       -17.29397        45.01441
     2013.79055       -17.90873        46.11915
     2013.79329       -19.55348        45.39739
     2013.79603       -14.99724        45.54469
     2013.79876       -16.53199        45.71408
     2013.80150        -8.89375        45.24272
     2013.80424       -15.31050        46.29591
     2013.80698       -16.43726        45.79509
     2013.80971       -11.15001        45.95712
     2013.81245       -13.11277        45.69198
     2013.81519       -11.32952        45.26482
     2013.81793       -20.96728        45.68462
     2013.82067       -16.05803        45.92030
     2013.82340       -16.69179        45.60360
     2013.82614       -17.19254        46.54631
     2013.82888       -12.76130        45.33847
     2013.83162       -21.87505        45.49313
     2013.83436       -14.61181        46.68625
     2013.83709       -17.73256        46.50949
     2013.83983       -11.98232        45.81719
     2013.84257       -17.20107        45.97185
     2013.84531       -22.16983        46.88510
     2013.84804       -17.20658        45.79509
     2013.85078       -21.02834        45.71408
     2013.85352       -15.62209        45.14698
     2013.85626       -15.17885        45.22063
     2013.85900       -15.21860        45.90557
     2013.86173       -15.60535        45.22063
     2013.86447       -24.25711        46.50213
     2013.86721       -21.37486        45.72144
     2013.86995       -14.00162        45.24272
     2013.87269        -7.37137        46.36219
     2013.87542       -11.13513        45.61833
     2013.87816       -15.01288        45.63306
     2013.88090       -11.65364        46.31800
     2013.88364       -15.31739        48.32863
     2013.88637       -15.13415        49.18296
     2013.88911       -14.90090        47.93092
     2013.89185       -27.70466        46.63469
     2013.89459       -20.57441        45.68462
     2013.89733       -21.93817        46.17807
     2013.90006       -17.11892        46.34010
     2013.90280       -24.35768        46.54631
     2013.90554       -17.33043        45.85401
     2013.90828       -16.26819        45.62570
     2013.91102       -15.82694        45.86138
     2013.91375       -20.30470        45.97922
     2013.91649       -18.59545        45.53732
     2013.91923       -23.80121        46.68625
     2013.92197       -13.45096        47.09132
     2013.92470       -15.72572        45.01441
     2013.92744       -13.64347        45.58151
     2013.93018       -13.60123        45.25745
     2013.93292       -17.72998        44.91867
     2013.93566       -17.10374        45.27955
     2013.93839       -20.24849        45.33847
     2013.94113       -21.34825        45.70671
     2013.94387       -14.93600        45.32374
     2013.94661       -16.20275        46.26645
     2013.94935       -22.42751        46.00868
     2013.95208       -17.86226        45.54469
     2013.95482       -17.74802        45.39739
     2013.95756       -17.11277        44.98495
     2013.96030       -16.34253        45.39002
     2013.96303       -16.24128        45.56678
     2013.96577       -14.43304        45.72881
     2013.96851       -11.87279        45.79509
     2013.97125        -3.82855        46.36956
     2013.97399       -18.23730        46.02341
     2013.97672       -20.48506        45.79509
     2013.97946       -20.28981        46.20753
     2013.98220       -19.30757        45.79509
     2013.98494       -17.77232        45.84665
     2013.98767       -25.07008        45.47840
     2013.99041       -23.70183        45.87611
     2013.99315       -23.34059        45.80982
     2013.99589       -24.32534        46.10442
     2013.99863       -23.38110        45.60360
     2014.00410       -23.07161        46.03813
     2014.00684       -20.43936        46.50949
     2014.00958       -17.41312        46.03813
     2014.01232       -22.77187        46.96612
     2014.01505       -22.92463        46.70098
     2014.01779       -20.56938        46.63469
     2014.02053       -16.43714        45.85401
     2014.02327       -19.82389        47.06186
     2014.02600       -23.30365        46.95875
     2014.02874       -21.40340        45.32374
     2014.03148       -17.93216        46.04550
     2014.03422       -20.68591        45.94976
     2014.03696       -17.09266        45.92030
     2014.03969       -21.07942        45.64779
     2014.04243       -18.42417        47.16497
     2014.04517       -14.25393        46.73780
     2014.04791       -17.25668        45.13225
     2014.05065       -15.97844        45.33847
     2014.05338       -16.76019        45.39002
     2014.05612       -21.75095        45.50786
     2014.05886       -17.34070        45.77300
     2014.06160       -17.01046        45.25745
     2014.06433       -12.52421        47.31963
     2014.06707       -15.33497        45.99395
     2014.06981       -14.76172        45.79509
     2014.07255       -10.90548        45.56678
     2014.07529       -23.33123        45.73617
     2014.07802       -23.66799        46.20016
     2014.08076       -14.72974        45.46367
     2014.08350       -15.45750        45.46367
     2014.08624       -21.08625        45.98658
     2014.08898       -19.00901        47.46693
     2014.09171       -14.80476        47.29754
     2014.09445       -20.39452        45.09542
     2014.09719       -15.16527        46.39165
     2014.09993       -13.84503        45.41212
     2014.10266       -15.93778        46.55368
     2014.10540       -12.69554        47.80572
     2014.10814       -17.80629        49.75742
     2014.11088       -26.19905        49.79425
     2014.11362       -22.31880        47.18706
     2014.11635       -24.55356        47.63632
     2014.11909       -28.86131        47.19443
     2014.12183       -16.19707        48.49065
     2014.12457       -23.79482        46.92929
     2014.12731       -23.87757        46.81882
     2014.13004       -20.31533        45.98658
     2014.13278       -16.84008        48.27707
     2014.13552       -18.94584        47.30490
     2014.13826       -24.12159        46.13388
     2014.14099       -19.03235        46.92193
     2014.14373       -18.42110        47.00294
     2014.14647       -21.51286        46.37692
     2014.14921        -9.31561        47.74680
     2014.15195       -18.45437        46.84828
     2014.15468       -21.40612        47.58477
     2014.15742       -22.88388        47.76153
     2014.16016       -23.14363        49.49965
     2014.16290       -32.86039        47.94565
     2014.16564       -35.90914        48.61586
     2014.16837       -30.25090        51.89325
     2014.17111       -42.87765        54.66982
     2014.17385       -20.98841        48.79998
     2014.17659       -39.45716        48.24761
     2014.17932       -11.52692        49.70587
     2014.18206       -17.74667        46.87774
     2014.18480       -27.95543        46.90720
     2014.18754       -36.20318        47.65842
     2014.19028       -20.85794        47.25335
     2014.19301       -19.67469        46.23699
     2014.19575       -20.22545        46.00131
     2014.19849       -25.50920        46.62733
     2014.20123       -35.75896        45.42685
     2014.20397       -33.20971        46.02341
     2014.20670       -19.51947        46.45794
     2014.20944       -18.72022        46.09705
     2014.21218       -24.00198        45.61097
     2014.21492       -23.50573        46.47267
     2014.21765       -27.33548        46.72307
     2014.22039       -31.57924        45.95712
     2014.22313       -26.63999        46.13388
     2014.22587       -26.24075        46.14861
     2014.22861       -22.41850        46.79672
     2014.23134       -21.91226        46.61260
     2014.23408       -16.09001        48.30653
     2014.23682       -23.06077        47.71734
     2014.27241       -25.58858        48.21815
     2014.27515       -27.47934        47.69524
     2014.27789       -29.49109        46.47267
     2014.28062       -26.20585        45.49313
     2014.28336       -27.24660        45.69935
     2014.28610       -21.32136        46.08232
     2014.28884       -31.49811        47.13551
     2014.29158       -32.88487        46.36956
     2014.29431       -27.93862        47.76153
     2014.29705       -30.00738        46.36956
     2014.29979       -24.95013        47.05449
     2014.30253       -31.28188        47.57004
     2014.30527       -34.72564        46.73044
     2014.30800       -29.73239        46.70098
     2014.31074       -25.92115        46.45057
     2014.31348       -25.27190        46.19280
     2014.31622       -24.19066        45.93503
     2014.31895       -26.54941        46.10442
     2014.32169       -34.04617        47.00294
     2014.32443       -40.47992        47.17233
     2014.32717       -35.95868        47.29017
     2014.32991       -28.36943        47.51112
     2014.33264       -25.74019        47.30490
     2014.33538       -26.60194        47.49639
     2014.33812       -31.91870        48.00457
     2014.34086       -29.11245        47.44484
     2014.34360       -31.73121        47.48166
     2014.34633       -20.36096        47.96038
     2014.34907       -24.26072        47.85727
     2014.35181       -34.02647        48.24025
     2014.35455       -30.76123        47.23862
     2014.35728       -28.38698        47.62896
     2014.36002       -24.79274        47.80572
     2014.36276       -24.17049        47.19443
     2014.36550       -24.96225        47.29754
     2014.36824       -30.16500        47.88673
     2014.37097       -19.62076        46.42111
     2014.37371       -24.87251        46.73044
     2014.37645       -22.98627        46.40638
     2014.37919       -20.64902        46.95875
     2014.38193       -24.00478        47.08395
     2014.38466       -27.55753        47.07659
     2014.38740       -26.91329        47.13551
     2014.39014       -21.19004        47.31963
     2014.39288       -25.27479        47.23125
     2014.39561       -20.37155        47.51112
     2014.39835       -12.19030        47.45220
     2014.40109       -22.19006        46.48740
     2014.40383       -25.90581        46.98085
     2014.40657       -26.10457        46.81145
     2014.40930       -27.44932        46.99557
     2014.41204       -22.65208        46.47267
     2014.41478       -28.52583        46.28854
     2014.41752       -18.17359        46.27381
     2014.42026       -14.02034        47.93092
     2014.42299       -15.85310        46.96612
     2014.42573       -15.66585        47.40801
     2014.42847       -11.76961        46.89983
     2014.43121       -20.39536        46.74517
     2014.43394       -16.34012        46.60523
     2014.43668       -21.18887        47.29754
     2014.43942       -21.06063        47.24598
     2014.44216       -28.03938        46.51685
     2014.44490       -19.06414        47.23125
     2014.44763       -11.05689        46.82618
     2014.45037       -21.29965        45.98658
     2014.45311       -14.69840        47.14287
     2014.45585       -13.35616        46.15597
     2014.45859       -14.01191        47.01767
     2014.46132       -15.93067        46.20016
     2014.46406       -15.84642        46.31064
     2014.46680       -24.77718        45.66252
     2014.46954       -18.45893        45.45631
     2014.47227       -11.02969        45.49313
     2014.47501       -18.40144        45.24272
     2014.47775       -10.45620        46.03077
     2014.48049       -20.40595        45.80982
     2014.48323       -20.65170        46.48740
     2014.48596       -21.62446        46.35483
     2014.48870       -11.72421        47.09132
     2014.49144        -5.98997        45.78773
     2014.49418        -6.89972        46.14124
     2014.49692       -13.76448        46.97348
     2014.49965       -26.58923        45.80982
     2014.50239       -19.83699        46.96612
     2014.50513       -19.18574        46.12651
     2014.50787       -17.33350        45.50786
     2014.51060       -18.83525        45.41212
     2014.51334       -11.47801        45.60360
     2014.51608       -18.52276        45.28691
     2014.51882       -12.22952        46.21489
     2014.52156        -6.92127        46.40638
     2014.52429       -14.87503        46.30327
     2014.52703        -9.46378        45.66252
     2014.52977       -13.72454        46.34746
     2014.53251       -12.90729        45.66989
     2014.53525       -21.65405        45.72144
     2014.53798        -9.50880        46.20753
     2014.54072       -15.33056        47.17233
     2014.54346         8.14769        47.21652
     2014.54620        -8.72607        46.45794
     2014.54893       -16.20782        47.26071
     2014.55167       -19.58358        46.41375
     2014.55441        -7.52933        45.93503
     2014.55715       -14.54509        45.47840
     2014.55989        -7.16484        45.90557
     2014.56262       -13.72760        45.81719
     2014.56536       -16.27835        45.23536
     2014.56810       -13.83110        45.98658
     2014.57084       -13.05786        46.03077
     2014.57357       -10.19861        46.63469
     2014.57631       -15.68437        46.01604
     2014.57905       -13.59112        46.10442
     2014.58179        -9.42688        47.06922
     2014.58453        -3.03163        46.36956
     2014.58726       -14.56639        48.36545
     2014.59000        -8.99714        47.00294
     2014.59274        -8.70190        46.80409
     2014.59548       -14.57365        47.63632
     2014.59822        -9.84541        48.24025
     2014.60095       -14.20516        48.52748
     2014.60369       -11.44492        47.45220
     2014.60643       -17.57567        47.71734
     2014.60917       -11.72143        47.95301
     2014.61190        -7.29518        48.66005
     2014.61464       -10.85094        47.31963
     2014.61738        -9.53669        47.90883
     2014.62012        -8.91145        48.58640
     2014.62286        -8.93820        47.49639
     2014.62559        -4.09496        47.34173
     2014.62833        -7.24571        46.46530
     2014.63107        -4.12747        47.27544
     2014.63381        -6.73122        48.18869
     2014.63655        -7.97098        47.59213
     2014.63928       -22.46473        47.45957
     2014.64202       -13.13249        46.84828
     2014.64476       -18.81424        47.26071
     2014.64750        -6.54700        47.34909
     2014.65023       -11.73275        47.61423
     2014.65297       -11.51151        47.61423
     2014.65571        -6.84526        47.08395
     2014.65845       -11.19901        46.75253
     2014.66119       -12.62277        47.02503
     2014.66392        -6.34352        47.36382
     2014.66666         0.00872        47.97511
     2014.66940        -7.33803        46.90720
     2014.67214        -6.88179        46.61260
     2014.67488        -5.79254        46.78936
     2014.67761       -12.48030        47.17233
     2014.68035       -12.92705        47.98984
     2014.68309       -16.16781        46.99557
     2014.68583        -6.69756        48.60113
     2014.68856       -12.76132        46.89247
     2014.69130       -12.49907        47.01767
     2014.69404       -12.39083        47.64369
     2014.69678       -17.03958        47.45957
     2014.69952        -5.65734        47.40065
     2014.70225       -10.04409        47.26808
     2014.70499        -5.37685        46.57577
     2014.70773        -9.67160        47.50375
     2014.71047        -6.94936        47.38592
     2014.71321        -5.23011        46.67152
     2014.71594        -9.32587        47.34909
     2014.71868        -3.26462        45.90557
     2014.72142        -6.82738        46.78936
     2014.72416        -5.99513        46.22226
     2014.72689        -7.67789        46.15597
     2014.72963       -17.43664        46.42111
     2014.73237       -13.45440        47.34909
     2014.73511       -13.61715        46.48740
     2014.73785       -10.17791        45.88347
     2014.74058       -17.78566        46.60523
     2014.74332       -18.89542        46.71571
     2014.74606       -12.78517        46.55368
     2014.74880       -18.89992        45.52259
     2014.75154       -12.38068        46.73044
     2014.75427       -11.60143        45.69935
     2014.75701       -12.90319        46.04550
     2014.75975       -12.56294        45.57414
     2014.76249       -12.78870        45.67725
     2014.76522       -12.95745        45.17644
     2014.76796       -12.50721        45.43421
     2014.77070       -11.44496        45.41948
     2014.77344       -15.85172        45.16171
     2014.77618       -11.48147        45.15434
     2014.77891        -9.21123        44.99968
     2014.78165       -17.88898        45.17644
     2014.78439        -8.57774        45.36793
     2014.78713       -11.55249        45.78773
     2014.78987       -16.07925        45.76563
     2014.79260       -20.62900        45.66989
     2014.79534       -11.31376        44.81556
     2014.79808       -12.86851        45.83192
     2014.80082       -11.98127        45.31637
     2014.80355       -13.62202        46.34010
     2014.80629       -12.48678        46.73044
     2014.80903       -17.06753        46.13388
     2014.81177        -7.23729        45.25745
     2014.81451       -11.69204        45.84665
     2014.81724       -13.71980        45.34583
     2014.81998       -11.70955        46.03813
     2014.82272       -16.18331        47.30490
     2014.82546       -12.51706        45.52996
     2014.82820       -17.66082        45.41212
     2014.83093       -12.48357        47.43011
     2014.83367       -20.22233        47.31227
     2014.83641       -14.98508        46.61996
     2014.83915        -6.87683        46.25172
     2014.84188       -20.02759        46.20753
     2014.84462       -21.30734        47.21652
     2014.84736       -14.76910        46.48740
     2014.85010       -15.57685        47.14287
     2014.85284        -9.74361        46.45057
     2014.85557       -13.29336        46.52422
     2014.85831       -18.39812        46.36219
     2014.86105       -13.24287        46.61996
     2014.86379       -17.59563        46.64942
     2014.86653        -8.00138        48.12977
     2014.86926       -18.39714        46.03813
     2014.87200       -18.23989        47.21652
     2014.87474       -15.85965        46.92929
     2014.87748       -16.96740        46.56841
     2014.88021       -16.32916        47.31963
     2014.88295       -17.48291        46.97348
     2014.88569       -42.77067        48.48329
     2014.88843       -24.95142        49.85317
     2014.89117       -20.82318        50.67067
     2014.89390       -16.26293        47.78362
     2014.89664       -12.75869        47.83518
     2014.89938       -15.58444        47.16497
     2014.90212       -24.88320        48.35072
     2014.90485       -18.33395        46.39165
     2014.90759       -19.25371        46.99557
     2014.91033       -21.11746        49.02093
     2014.91307       -26.46222        48.83681
     2014.91581       -43.91897        48.33599
     2014.91854        -4.85073        49.58803
     2014.92128       -42.12848        51.86379
     2014.92402       -13.72623        49.38917
     2014.92676       -26.25899        48.57167
     2014.92950       -27.61474        47.15760
     2014.93223       -32.54750        46.86301
     2014.93497       -34.37025        47.57740
     2014.93771       -30.34401        48.53484
     2014.94045       -31.44076        46.75253
     2014.94318       -33.13652        49.27870
     2014.94592       -47.36127        51.35561
     2014.94866       -38.83103        48.59376
     2014.95140       -29.08878        47.60686
     2014.95414       -19.97954        47.20916
     2014.95687         8.06071        48.17396
     2014.95961        38.52095        48.80735
     2014.96235        31.85720        48.52748
     2014.96509        42.92844        49.46282
     2014.96783        54.63669        50.07411
     2014.97878        58.93367        48.90309
     2014.98425        58.41916        48.03403
     2014.98699        54.91540        47.11341
     2014.98973        50.25765        46.90720
     2014.99247        50.55689        46.58314
     2014.99520        51.38514        45.47840
     2014.99794        52.60738        46.45057
     2015.00068        45.38363        46.39165
     2015.00342        36.39487        45.88347
     2015.00616        40.95412        46.64942
     2015.00889        42.28936        46.92929
     2015.01163        28.24761        46.81882
     2015.01437        40.01186        48.08558
     2015.03080        50.71433        49.25661
     2015.03353        25.44157        49.47019
     2015.03627       -35.73218        50.16986
     2015.04175       -17.78669        49.66168
     2015.04449       -17.89245        50.56756
     2015.04722       -34.54720        48.31390
     2015.04996       -32.35496        46.94402
     2015.05270       -31.64271        46.95139
     2015.05544       -31.22047        46.11915
     2015.05817       -29.11622        45.67725
     2015.06091       -20.36298        45.66989
     2015.06365       -15.34273        46.41375
     2015.06639       -25.91449        45.36056
     2015.06913       -24.88224        45.66989
     2015.07186       -28.37000        45.06597
     2015.07460       -27.22175        45.81719
     2015.07734       -30.62351        46.11178
     2015.08008       -33.32726        45.28691
     2015.08282       -26.61002        45.41212
     2015.08555       -34.58677        44.80819
     2015.08829       -37.32653        46.14861
     2015.09103       -25.35428        47.04713
     2015.09377       -18.81004        44.91130
     2015.09650       -24.97079        45.67725
     2015.09924       -20.90955        46.53158
     2015.10198       -35.95830        47.68788
     2015.10472       -18.30305        47.05449
     2015.10746       -17.42381        47.90146
     2015.11019        14.30444        48.59376
     2015.11293        11.12468        49.00620
     2015.11567       -34.48507        48.18869
     2015.11841       -47.58683        47.82781
     2015.12115       -31.73358        47.34173
     2015.12388       -21.47234        47.19443
     2015.12662       -23.55809        46.45794
     2015.12936       -21.88485        46.05286
     2015.13210       -24.20460        45.89820
     2015.13483       -26.69436        47.32700
     2015.13757       -19.77611        46.58314
     2015.14031       -28.42287        45.86874
     2015.14305       -19.99662        44.71245
     2015.14579       -25.68738        44.82292
     2015.14852       -29.27613        46.24435
     2015.15126       -24.11289        45.45631
     2015.15400       -27.91364        45.09542
     2015.15674       -27.52340        45.33847
     2015.15948       -35.56815        45.78036
     2015.16221       -20.90491        45.91293
     2015.16495       -24.73666        44.97759
     2015.16769       -24.04442        44.82292
     2015.17043       -27.70817        45.13961
     2015.17316       -29.92993        47.03240
     2015.17590       -24.92468        46.23699
     2015.17864       -30.46944        45.73617
     2015.18138       -27.77419        44.57252
     2015.18412       -20.40695        45.41948
     2015.18685       -24.51070        46.22226
     2015.18959       -32.29145        46.17807
     2015.19233       -32.50421        48.21815
     2015.19507       -28.37196        45.76563
     2015.19780       -25.60272        46.33273
     2015.20054       -34.04747        45.78036
     2015.20328       -29.38323        46.12651
     2015.20602       -25.70198        46.43584
     2015.20876       -31.51574        45.59624
     2015.21149       -37.60749        45.85401
     2015.21423       -38.87925        46.54631
     2015.21697       -38.12100        46.31064
     2015.21971       -28.24976        47.37855
     2015.22245       -27.14451        46.19280
     2015.22518       -29.09927        45.47104
     2015.22792       -31.57602        45.40475
     2015.23066       -27.66478        46.15597
     2015.23340       -21.96153        47.72470
     2015.23613       -28.53229        47.58477
     2015.23887       -30.69504        48.45383
     2015.24161       -27.27180        48.78525
     2015.24435       -30.67455        48.82944
     2015.24709       -29.48231        46.81145
     2015.24982       -19.21506        46.75990
     2015.25256       -22.64882        46.80409
     2015.25530       -28.85557        46.81882
     2015.25804       -33.26433        45.81719
     2015.26078       -26.87108        46.45794
     2015.26351       -24.92184        45.16171
     2015.26625       -26.85159        45.31637
     2015.26899       -28.34935        46.20016
     2015.27173       -24.50810        48.43910
     2015.27446       -23.96586        48.56430
     2015.27720       -22.43661        47.41538
     2015.27994       -26.04736        47.37119
     2015.28268       -34.50012        46.45057
     2015.28542       -23.01087        47.29754
     2015.28815       -28.60463        47.70997
     2015.29089       -24.69438        47.14287
     2015.29363       -22.85914        48.63795
     2015.29637       -31.13489        46.92193
     2015.29911       -27.67865        47.91619
     2015.30184       -20.13940        47.71734
     2015.30458       -19.59716        47.96038
     2015.30732       -23.76091        46.53158
     2015.31006       -23.68367        46.19280
     2015.31279       -29.67742        45.23536
     2015.31553       -34.45718        45.77300
     2015.31827       -27.39293        45.92766
     2015.32101       -22.62769        46.13388
     2015.32375       -32.39044        45.30901
     2015.32648       -27.53720        46.36219
     2015.32922       -24.41895        46.77463
     2015.33196       -25.85971        45.34583
     2015.33470       -23.12446        45.16907
     2015.33744       -26.97322        44.78610
     2015.34017       -26.88797        45.55205
     2015.34291       -16.51073        45.08069
     2015.34565       -20.73048        44.52833
     2015.34839       -25.48524        45.31637
     2015.35112       -24.58799        45.58151
     2015.35386       -18.46475        44.85975
     2015.35660       -25.04750        45.04387
     2015.35934       -29.40926        45.89820
     2015.36208       -21.54701        46.14861
     2015.36481       -24.78277        44.60197
     2015.36755       -21.29652        45.27218
     2015.37029       -21.63027        44.69035
     2015.37303       -25.72203        45.24272
     2015.37577       -31.87578        45.02178
     2015.37850       -26.82354        46.94402
     2015.38124       -31.65429        45.04387
     2015.38398       -31.74305        44.72718
     2015.38672       -21.26380        44.99968
     2015.38945       -21.93056        46.11915
     2015.39219       -25.91531        46.19280
     2015.39493       -17.67807        45.72881
     2015.39767       -30.50382        45.19117
     2015.40041       -21.92958        45.73617
     2015.40314       -16.09033        47.06922
     2015.40588       -29.26409        45.88347
     2015.40862       -20.67684        46.08232
     2015.41136       -21.81460        45.09542
     2015.41410       -27.05335        45.25745
     2015.41683       -26.45611        45.33847
     2015.41957       -21.96086        45.87611
     2015.42231       -12.10462        45.26482
     2015.42505       -21.24537        45.89820
     2015.42778       -25.64813        44.81556
     2015.43052       -22.95788        44.77873
     2015.43326       -14.41364        44.73454
     2015.43600        -5.63939        46.74517
     2015.43874       -12.95115        45.85401
     2015.44147       -17.12490        47.01030
     2015.44421       -23.13566        44.63143
     2015.44695       -13.38241        45.64779
     2015.44969       -23.94217        45.38266
     2015.45243       -19.20292        46.72307
     2015.45516       -20.87367        45.61833
     2015.45790       -22.32243        46.19280
     2015.46064       -22.61418        47.72470
     2015.46338       -16.75494        47.07659
     2015.46611       -10.70669        45.36056
     2015.46885       -11.08945        45.92766
     2015.47159       -14.43120        45.15434
     2015.47433       -18.50496        45.55205
     2015.47707       -17.32771        45.80246
     2015.47980       -11.19947        46.19280
     2015.48254        -7.61622        46.64206
     2015.48528       -15.09198        46.17070
     2015.48802       -15.67373        45.45631
     2015.49076       -16.85949        46.64206
     2015.49349       -10.73024        46.33273
     2015.49623       -14.20000        47.30490
     2015.49897        -3.70175        47.48902
     2015.50171        -4.01651        45.81719
     2015.50444        -4.76126        45.90557
     2015.50718        -9.83002        46.22962
     2015.50992       -11.84277        46.06023
     2015.51266        -3.32853        46.32537
     2015.51540       -11.76728        47.28281
     2015.51813        -9.87304        46.05286
     2015.52087        -8.75279        45.68462
     2015.52361       -16.46055        45.18380
     2015.52635       -10.35130        45.54469
     2015.52908       -15.80406        45.51523
     2015.53182       -11.31481        45.81719
     2015.53456        -9.65157        44.97759
     2015.53730       -12.65132        45.90557
     2015.54004       -16.17908        46.44321
     2015.54277       -12.95783        46.42111
     2015.54551        -9.90058        46.91456
     2015.54825        -4.86234        46.96612
     2015.55099       -10.17409        46.95875
     2015.55373        -9.96485        47.15024
     2015.55646        -7.75060        46.25172
     2015.55920       -15.18536        46.08232
     2015.56194        -7.78511        47.04713
     2015.56468        -7.91887        46.08969
     2015.56741        -1.71462        46.40638
     2015.57015        -3.21438        47.91619
     2015.57289       -10.38713        48.22552
     2015.57563        -8.45389        46.48003
     2015.57837       -11.64064        46.36219
     2015.58110        -3.61640        46.73780
     2015.58384        -5.19615        47.64369
     2015.58658        -3.42091        47.81308
     2015.58932       -11.55366        47.00294
     2015.59206       -10.79042        47.54794
     2015.59479         0.10083        46.45794
     2015.59753        -3.95093        46.75990
     2015.60027       -10.79068        47.63632
     2015.60301        -8.61144        47.73207
     2015.60574       -13.91619        46.93666
     2015.60848        -7.82895        46.95139
     2015.61122        -7.27370        46.09705
     2015.61396        -4.39146        46.39902
     2015.61670        -7.30421        45.49313
     2015.61943        -6.16497        45.44894
     2015.62217        -0.37872        45.61833
     2015.62491        -1.27048        45.64779
     2015.62765        -0.64123        45.94976
     2015.63039        -2.91299        46.21489
     2015.63312        -5.30474        45.77300
     2015.63586        -7.89349        45.75090
     2015.63860       -14.16525        45.47104
     2015.64134        -9.45100        45.72881
     2015.64407       -14.50876        45.60360
     2015.64681       -15.97651        46.11915
     2015.64955       -13.77227        46.64206
     2015.65229       -15.72602        45.60360
     2015.65503       -12.47378        46.47267
     2015.65776        -9.18053        45.85401
     2015.66050        -8.14029        45.80982
     2015.66324        -7.19604        45.90557
     2015.66598        -3.34380        46.46530
     2015.66872        -7.95855        45.93503
     2015.67145       -12.64531        45.94976
     2015.67419        -8.44606        45.25009
     2015.67693       -12.61182        45.37529
     2015.67967        -6.52257        45.60360
     2015.68240        -6.42233        44.60934
     2015.68514       -12.41308        44.81556
     2015.68788        -8.42684        45.05860
     2015.69062         1.30141        45.99395
     2015.69336       -11.80735        46.21489
     2015.69609        -6.26710        45.44894
     2015.69883        -0.91786        45.64043
     2015.70157        -8.71161        45.33110
     2015.70431       -12.06637        45.52259
     2015.70705       -14.67212        46.60523
     2015.70978       -16.19788        46.42848
     2015.71252        -8.98163        44.66089
     2015.71526        -7.21039        45.10279
     2015.71800        -5.26414        45.69935
     2015.72073        -1.00689        45.56678
     2015.72347        -4.21565        45.36793
     2015.72621       -12.38840        45.02914
     2015.72895       -16.48616        44.89657
     2015.73169        -7.37291        45.23536
     2015.73442        -9.62567        44.63880
     2015.73716        -8.59642        45.06597
     2015.73990        -5.16118        46.04550
     2015.74264       -11.51293        45.65516
     2015.74538        -3.43069        47.31227
     2015.74811       -14.65844        48.01193
     2015.75085       -18.36020        45.30164
     2015.75359        -7.28695        45.36056
     2015.75633        -4.37171        45.24272
     2015.75906        -9.01646        45.59624
     2015.76180        -4.64122        45.88347
     2015.76454        -9.70997        46.50213
     2015.76728        -6.65673        45.20590
     2015.77002       -12.98848        45.65516
     2015.77275        -9.31824        45.04387
     2015.77549        -6.65199        44.72718
     2015.77823        -5.41875        45.59624
     2015.78097       -11.64450        45.61097
     2015.78371        -3.94826        45.86874
     2015.78644        -6.14401        45.44158
     2015.78918        -6.06677        46.26645
     2015.79192        -7.63052        46.34010
     2015.79466       -11.17328        46.60523
     2015.79739        -7.01403        45.94976
     2015.80013        -6.12779        46.41375
     2015.80287       -13.50954        45.29428
     2015.80561       -12.31730        46.04550
     2015.80835        -7.88505        45.77300
     2015.81108       -12.54080        45.32374
     2015.81382        -6.26556        46.11178
     2015.81656       -10.07831        45.75827
     2015.81930       -10.00907        45.35320
     2015.82203       -14.07282        46.22962
     2015.82477        -4.96958        45.59624
     2015.82751       -12.90033        45.88347
     2015.83025        -9.52409        46.81145
     2015.83299       -17.40984        46.12651
     2015.83572       -12.10060        46.95139
     2015.83846       -16.83335        47.11341
     2015.84120       -10.34911        47.21652
     2015.84394        -8.50686        47.62159
     2015.84668       -10.23062        46.89247
     2015.84941       -11.97537        46.98821
     2015.85215        -6.69813        47.28281
     2015.85489       -10.07988        47.23125
     2015.85763       -27.74364        46.92929
     2015.86036       -10.71939        47.27544
     2015.86310        -8.34215        46.33273
     2015.86584       -10.57690        47.19443
     2015.86858       -18.13366        46.34010
     2015.87132        -5.55241        46.45794
     2015.87405       -16.85917        46.11178
     2015.87679       -15.98592        47.45220
     2015.87953       -12.87868        46.95139
     2015.88227       -11.14643        47.52585
     2015.88501       -19.51119        47.23862
     2015.88774        -8.70894        46.13388
     2015.89048        -2.37370        47.02503
     2015.89322        -2.54045        46.50213
     2015.89596        -2.40021        46.61260
     2015.89869        -8.53096        46.07496
     2015.90143       -12.15871        46.88510
     2015.90417       -12.70547        45.89820
     2015.90691        -4.49522        46.89247
     2015.90965       -10.30698        46.08232
     2015.91238       -10.65373        46.91456
     2015.91512       -14.57849        46.57577
     2015.91786       -18.08724        46.79672
     2015.92060        -7.31600        46.48003
     2015.92334       -12.83275        46.86301
     2015.92607       -13.23351        47.32700
     2015.92881       -22.77726        48.14450
     2015.93155        -9.28102        49.44809
     2015.93429       -11.03677        49.17559
     2015.93702        -9.70953        49.29343
     2015.97262        70.46966        57.24018
     2015.97535        22.94490        53.89651
     2015.97809        32.20815        50.19195
     2015.98083        43.15539        52.14366
     2015.98357        44.94764        52.04791
     2015.98631        45.82188        49.82371
     2015.98904        44.19213        48.67478
     2015.99178        51.91038        50.14040
     2015.99452        42.53662        48.87363
     2015.99726        48.35887        47.75416
     2016.00000        51.00511        47.90883
     2016.00273        35.67636        47.55531
     2016.00547        39.34060        47.48166
     2016.00821        30.02185        45.35320
     2016.01095        64.81109        47.18706
     2016.01368        67.33834        49.20505
     2016.01642        68.20958        50.80324
     2016.01916        69.06083        49.91208
     2016.02190        74.48807        51.37770
     2016.02464        74.51032        48.10031
     2016.02737        57.41756        48.78525
     2016.03011        61.07381        50.31716
     2016.03285        95.07005        48.67478
     2016.49672        15.95312       153.61757
     2016.49828        10.59573        45.76563
     2016.50102        12.23097        45.45631
     2016.50376         7.88722        45.87611
     2016.50650         8.52346        46.11178
     2016.50924         8.18571        44.32211
     2016.51197         2.91895        44.36630
     2016.51471         4.60020        44.64616
     2016.51745         4.41944        45.83928
     2016.52019         5.92969        45.55205
     2016.52292         5.01394        45.24272
     2016.52566         8.39518        45.39002
     2016.52840         3.74843        45.13961
     2016.53114         9.54467        45.39739
     2016.53388        12.39892        45.42685
     2016.53661         9.93416        45.36056
     2016.53935        18.03441        45.58887
     2016.54209         9.95065        44.52833
     2016.54483        14.41390        44.26319
     2016.54757         6.24514        44.66826
     2016.55030        16.78539        46.23699
     2016.55304        14.74263        44.94813
     2016.55578        17.25388        46.40638
     2016.55852        13.76012        45.47840
     2016.56125        15.99937        45.74354
     2016.56399        14.82661        45.19117
     2016.56673        17.75086        46.41375
     2016.56947        18.81410        55.16327
     2016.57221        19.73635        55.61254
     2016.57494        13.94259        46.08969
     2016.57768        12.38684        44.94813
     2016.58042        13.85808        45.04387
     2016.58316        14.54433        45.64779
     2016.58590        12.68857        45.35320
     2016.58863        21.41582        45.75827
     2016.59137         9.13506        45.11752
     2016.59411        16.50231        44.91867
     2016.59685        20.67855        44.52833
     2016.59958        10.85480        45.86874
     2016.60232        17.08004        45.13225
     2016.60506        10.20029        46.84091
     2016.60780        -7.26147        45.48577
     2016.61054        -2.88922        45.60360
     2016.61327        -3.71297        46.57577
     2016.61601        -9.10273        45.83192
     2016.61875        -9.89348        46.06759
     2016.62149        -7.27124        44.96286
     2016.62423         1.93301        46.60523
     2016.62696         4.76925        46.23699
     2016.62970         0.44650        45.82455
     2016.63244        -4.05626        47.34173
     2016.63518        -3.96901        47.01030
     2016.63791       -14.75777        45.41212
     2016.64065         1.87948        45.49313
     2016.64339        -6.99928        45.66989
     2016.64613         2.77997        46.36956
     2016.64887         3.76221        45.29428
     2016.65160        -1.86654        46.73044
     2016.65434        -6.34130        44.66089
     2016.65708        -6.27305        44.27792
     2016.65982        -6.02281        45.26482
     2016.66256        -9.83156        46.00868
     2016.66529        -7.74232        45.56678
     2016.66803        -2.07707        45.41948
     2016.67077         1.30317        46.31064
     2016.67351        -5.03058        44.07170
     2016.67624        -4.12034        45.24272
     2016.67898        -0.24009        44.49887
     2016.68172        -0.61685        44.56515
     2016.68446         5.60240        47.43747
     2016.68720        -8.31736        47.40801
     2016.68993         1.96189        45.02914
     2016.69267        -2.53287        45.28691
     2016.69541         0.70138        45.59624
     2016.69815         1.32763        45.43421
     2016.70089         1.45387        44.85238
     2016.70362         1.30612        45.41948
     2016.70636        -2.15964        47.51848
     2016.70910         1.28761        48.33599
     2016.71184        -1.15115        51.65757
     2016.71457         2.27410        49.06512
     2016.71731         0.33234        49.40390
     2016.72005        -2.22941        55.02334
     2016.72279        -3.94617        54.31631
     2016.72553        -3.39892        56.09126
     2016.72826         2.04432        58.66898
     2016.73100        -4.06943        54.66982
     2016.73374        -6.76219        53.25576
     2016.73648         3.51906        49.35972
     2016.73921         4.42530        46.42848
     2016.74195        -0.48845        61.31299
     2016.74469        -2.67221        58.44067
     2016.74743        -3.11496        62.80807
     2016.75017         6.71728        87.81198
     2016.75290        -5.49847        64.68612
     2016.75564         0.30077       101.38553
     2016.75838         2.79302        83.15735
     2016.76112         6.75126        69.47332
     2016.76386         5.72051        74.20160
     2016.76659        -5.15225        53.18211
     2016.76933        -3.96200        56.73200
     2016.77207        -4.58976        54.72874
     2016.77481         2.32149        57.97668
     2016.77754         0.64473        54.01435
     2016.78028        -3.41902        60.79008
     2016.78302        -2.78678        62.12313
     2016.78576        -7.35153        57.43167
     2016.78850        -4.99928        65.84978
     2016.79123         3.76896        84.10742
     2016.79499         8.33438       158.72146
     2016.79671       -11.78355        71.42503
     2016.79945       -11.04430        70.08461
     2016.80219         2.76294        54.80239
     2016.80492        -5.44881        57.44640
     2016.80766        -8.02857        54.94969
     2016.81040        -8.45532        63.92753
     2016.81314       -13.13308        62.79334
     2016.81587       -30.11983        65.40788
     2016.81861       -21.74359        62.26306
     2016.82135         0.22566        64.91443
     2016.82409       -19.06010        63.10266
     2016.82683       -11.07985        61.85063
     2016.82956       -11.25061        64.94389
     2016.83230       -21.01136        73.32518
     2016.83504       -45.79712        83.49613
     2016.83778        -5.50287        69.66481
     2016.84052       -18.93063        56.87930
     2016.84325        -9.25538        59.11087
     2016.84599       -10.28514        71.38820
     2016.84873         4.62211        75.71141
     2016.85147       -19.81265        66.64519
     2016.85420       -14.66940        57.01187
     2016.85694        -5.13416        55.65672
     2016.85968       -11.00991        56.98241
     2016.86242         0.12733        68.35385
     2016.86516       -10.58842        62.99955
     2016.86789       -25.10018        65.19430
     2016.87063       -15.25993        58.77945
     2016.87337       -12.06069        53.77130
     2016.87611       -13.28144        56.03234
     2016.87885        -3.91119        58.25654
     2016.88158        -7.75295        55.84821
     2016.88432       -13.19870        59.81791
     2016.88706       -51.85446        60.10514
     2016.88980       -61.54821        64.98808
     2016.89253       -20.69197        58.11661
     2016.89527       -12.47072        62.85962
     2016.89801       -15.21448        63.75814
     2016.90075       -16.53723        68.30230
     2016.90349       -12.45999        66.69674
     2016.90622       -15.55874        64.14112
     2016.90896       -17.93950        75.98391
     2016.91170       -10.56625        73.17051
     2016.91444       -27.09901        66.03390
     2016.91718       -14.71276        71.88902
     2016.91991       -30.03352        66.57154
     2016.92265       -21.55127        58.35229
     2016.92539       -22.42703        57.91776
     2016.92813       -16.56278        66.09282
     2016.93086       -13.41354        71.78591
     2016.93360       -23.05629        71.26300
     2016.93634       -32.00905        66.92506
     2016.93908       -27.74580        64.41362
     2016.94182       -32.51956        58.78682
     2016.94455       -30.41131        58.38911
     2016.94729       -11.02007        70.83583
     2016.95824        51.73591        80.86686
     2016.96098        35.56616        58.95621
     2016.96372        26.24340        57.91039
     2016.96919        49.13990        57.80728
     2016.97193        62.74614        52.37933
     2016.97467        69.92939        52.51927
     2016.97741        76.92763        52.44562
     2016.98015        94.79088        53.63874
     2016.98288       100.38812        57.93985
     2016.98562        97.77437        61.05521
     2016.98836        83.13861        58.98567
     2016.99110        88.34686        62.08630
     2016.99384        94.06210        65.18694
     2016.99657       110.12335        61.37927
     2016.99931       105.96459        58.83837
     2017.00205       105.24084        59.80318
     2017.00479        98.22608        55.33267
     2017.00752       107.96533        60.31136
     2017.01026       140.43257        67.55844
     2017.01300       161.50382        66.61573
     2017.01848       148.85431        71.71962
     2017.02941       138.62515       823.65619
     2017.03764        79.24702       139.08657
     2017.04040       108.86851       124.69551
     2017.04312       145.79951       112.04258
     2017.68925        -2.85363        45.23536
     2017.69199        -4.22538        44.19690
     2017.69472         5.12386        45.22063
     2017.69746        -5.44089        45.73617
     2017.70020         1.03235        45.42685
     2017.70294         1.91860        47.46693
     2017.70568        -3.06916        46.18543
     2017.70841         0.08809        44.20427
     2017.71115       -10.31467        44.97022
     2017.71389        -1.29142        45.30901
     2017.71663        -4.49718        44.13062
     2017.71937       -15.82693        45.22063
     2017.72210       -10.34369        45.04387
     2017.72484        -5.45644        45.35320
     2017.72758        -2.56020        45.17644
     2017.73032        -5.33895        45.22063
     2017.73305        -5.41571        44.43995
     2017.73579        -7.87546        44.88921
     2017.73853        -3.27022        44.72718
     2017.74127        -8.62297        44.40312
     2017.74401        -8.21073        45.23536
     2017.74674       -10.95048        44.24846
     2017.74948        -2.22124        44.73454
     2017.75222        -5.80899        43.99069
     2017.75496        -1.17175        44.63880
     2017.75770        -9.96250        45.72881
     2017.76043        -5.56626        45.06597
     2017.76317        -1.98501        43.95386
     2017.76591         0.54624        44.99232
     2017.76865        -2.85952        44.38103
     2017.77138        -5.25727        44.03488
     2017.77412        -3.53403        44.31474
     2017.77686        -6.18478        44.07170
     2017.77960        -9.09354        44.57988
     2017.78234        -8.22729        44.33684
     2017.78507        -4.22905        43.84339
     2017.78781        -5.10680        44.73454
     2017.79055        -5.96156        44.47677
     2017.79329        -3.15831        43.49724
     2017.79603        -5.74107        44.08643
     2017.79876         2.01418        44.85238
     2017.80150       -11.82658        46.28854
     2017.80424        -6.77133        44.55042
     2017.80698       -14.52709        45.50786
     2017.80971       -13.31384        44.24109
     2017.81245        -8.18160        44.68299
     2017.81519         1.87165        44.38839
     2017.81793        -5.91611        44.74191
     2017.82067        -2.23586        44.97022
     2017.82340        -2.88362        45.26482
     2017.82614        -7.11237        44.13798
     2017.82888        -7.48013        44.59461
     2017.83162        -2.69188        44.21163
     2017.83436        -7.50064        44.12325
     2017.83709        -9.05539        45.02178
     2017.83983       -13.33015        46.11915
     2017.84257       -13.02790        47.34909
     2017.84531       -16.55266        49.09458
     2017.84804       -12.77941        48.24025
     2017.85078       -14.35417        48.38755
     2017.85352        -7.05892        46.58314
     2017.85626       -15.64367        47.45957
     2017.85900       -20.08843        48.46119
     2017.86173       -11.22618        48.12241
     2017.86447        -4.61394        45.96449
     2017.86721        -8.62169        46.03813
     2017.86995       -16.80245        47.51848
     2017.87269       -12.89720        46.70834
     2017.87542       -12.51796        46.64206
     2017.87816       -17.43771        45.77300
     2017.88090        -5.64047        45.02914
     2017.88364       -14.51422        44.77873
     2017.88637       -20.06798        46.34746
     2017.88911       -13.33073        46.48003
     2017.89185       -16.11249        44.55779
     2017.89459       -19.26824        44.98495
     2017.89733       -11.50900        45.24272
     2017.90006        -9.09075        45.25745
     2017.90280       -13.43751        45.94239
     2017.90554        -4.56726        44.81556
     2017.90828       -10.61302        44.52096
     2017.91102       -13.47577        45.55205
     2017.91375       -16.58153        46.05286
     2017.91649       -11.98328        45.45631
     2017.91923        -4.73004        45.54469
     2017.92197        -4.45979        44.57988
     2017.92470        -9.53355        43.86548
     2017.92744       -13.70030        45.25009
     2017.93018       -16.04106        44.97022
     2017.93292       -20.60481        44.16008
     2017.93566       -14.94857        45.61097
     2017.93839       -13.18932        44.24109
     2017.94113       -13.32807        44.78610
     2017.94387        -3.64083        45.41948
     2017.94661       -16.60358        43.88758
     2017.94935       -17.68834        45.31637
     2017.95208       -12.51709        45.78773
     2017.95482       -13.02185        45.69935
     2017.95756        -5.16060        44.24846
     2017.96030        -7.60836        44.81556
     2017.96303       -10.29711        45.94239
     2017.96577       -19.44487        45.99395
     2017.96851       -13.72362        44.05697
     2017.97125       -13.80938        43.84339
     2017.97399       -14.27713        44.65353
     2017.97672        -9.55789        45.05124
     2017.97946       -16.01864        44.61670
     2017.98220       -14.31140        45.85401
     2017.98494       -12.87215        45.14698
     2017.98767       -22.82691        45.66989
     2017.99041       -19.16166        44.99232
     2017.99315       -17.56942        46.32537
     2017.99589       -19.60517        45.37529
     2017.99863       -14.84793        45.32374
     2018.00136       -21.52568        45.66252
     2018.00410       -27.55244        46.28118
     2018.00684       -14.94819        45.78036
     2018.00958       -22.26995        46.81882
     2018.01232       -26.94570        46.55368
     2018.01505       -16.20946        45.50786
     2018.01779       -18.48121        45.86874
     2018.02053       -28.90397        46.02341
     2018.02327       -22.52072        47.61423
     2018.02600       -24.18948        44.85975
     2018.02874       -21.49423        45.30164
     2018.03148       -28.41198        44.88921
     2018.03422       -21.14774        44.72718
     2018.03696       -19.26649        46.08969
     2018.03969       -27.97925        45.22799
     2018.04243       -26.32700        44.68299
     2018.04517       -31.62676        45.61097
     2018.04791       -25.05151        45.04387
     2018.05065       -23.21027        45.30164
     2018.05338       -23.57002        45.26482
     2018.05612       -24.45678        45.38266
     2018.05886       -25.74153        44.10853
     2018.06160       -25.50829        44.07170
     2018.06433       -22.29204        45.04387
     2018.06707       -16.66580        46.08969
     2018.06981        -7.34455        46.89247
     2018.07255       -10.72231        46.66415
     2018.07529       -31.44706        46.36956
     2018.07802       -30.94682        45.67725
     2018.08076       -28.07157        45.57414
     2018.08350       -22.95233        45.65516
     2018.08624       -28.17208        44.94076
     2018.08898       -32.87884        44.58725
     2018.09171       -26.79559        44.83029
     2018.09445       -24.92635        45.42685
     2018.09719       -21.89110        47.18706
     2018.09993       -20.74786        46.46530
     2018.10266       -26.70361        45.43421
     2018.10540       -18.54537        47.04713
     2018.10814       -24.86512        46.20016
     2018.11088       -29.61888        46.36956
     2018.11362       -28.73063        45.55941
     2018.11635       -30.75039        45.98658
     2018.11909       -26.12114        46.63469
     2018.12183       -24.72189        46.54631
     2018.12457       -24.59065        45.63306
     2018.12731       -22.85940        45.78773
     2018.13004       -22.29716        47.47429
     2018.13278       -22.75191        45.95712
     2018.13552       -22.33667        45.08069
     2018.13826       -24.51242        44.20427
     2018.14099       -27.83418        45.36793
     2018.14373       -28.65293        45.55205
     2018.14647       -20.56969        46.45794
     2018.14921       -22.27244        45.87611
     2018.15195       -27.14320        44.74191
     2018.15468       -19.60195        44.27055
     2018.15742       -23.82971        44.57252
     2018.16016       -28.81246        44.99968
     2018.16290        -1.98922        47.43747
     2018.17659        25.49901        47.70997
     2018.19849       193.76397        48.16660
     2018.20123       170.98521        47.15024
     2018.20397       172.07046        46.39902
     2018.20670       162.90470        47.10605
     2018.22587       241.61742        54.41205
     2018.23134       225.41991        52.27622
     2018.23408       244.90916        54.27948
     2018.26967       219.35434        47.86464
     2018.27241       214.68359        49.34499
     2018.27515       219.10283        48.15187
     2018.27789       214.41908        46.53895
     2018.28062       202.64932        49.41127
     2018.28610       219.55381        46.35483
     2018.29431       220.39855        45.80982
     2018.29979       218.49504        49.13140
     2018.30241       251.75210        56.88667
     2018.32012       196.86434       126.79452
     2018.32169       179.11000        44.37366
     2018.32443       195.33225        45.94976
     2018.32717       203.37149        46.56841
     2018.32991       197.31474        47.59213
     2018.33264       193.11798        46.50949
     2018.33538       151.93323        46.98821
     2018.36002       -22.82257        44.49150
     2018.36276       -19.46132        45.17644
     2018.36550       -27.02008        45.86874
     2018.36824       -13.68583        45.14698
     2018.37097       -22.56559        44.74927
     2018.37371       -14.46734        45.24272
     2018.37645       -31.78710        46.56841
     2018.37919       -29.44885        46.34010
     2018.38193       -16.59761        45.13225
     2018.38466       -22.08936        44.88921
     2018.38740       -19.81311        44.94076
     2018.39014       -13.18387        45.74354
     2018.39288       -23.23962        45.85401
     2018.39561       -27.87838        46.11915
     2018.39835       -15.74313        45.08806
     2018.40109       -16.15289        45.09542
     2018.40383       -18.17064        44.78610
     2018.40657       -21.53140        44.46204
     2018.40930       -11.57915        45.44158
     2018.41204        -7.26091        44.48414
     2018.41478       -18.53566        43.90967
     2018.41752       -20.73142        44.13798
     2018.42026       -15.85917        44.36630
     2018.42299       -18.19793        44.64616
     2018.42573        -7.04968        44.29265
     2018.42847       -10.06644        44.41049
     2018.43121       -15.40619        44.63880
     2018.43394       -16.36095        43.40149
     2018.43668       -16.26070        43.84339
     2018.43942       -14.52546        44.92603
     2018.44216       -20.92121        45.79509
     2018.44490       -13.54697        44.27055
     2018.44763       -13.27872        44.22636
     2018.45037       -14.32448        43.57089
     2018.45311       -11.99823        43.57089
     2018.45585        -9.72499        44.27055
     2018.45859       -14.22574        45.97185
     2018.46132       -22.65450        44.91130
     2018.46406       -11.20725        44.97022
     2018.46680       -14.16001        44.74191
     2018.46954       -12.14476        44.63143
     2018.47227        -9.21552        46.36219
     2018.47501        -7.36427        44.42522
     2018.47775       -10.17302        44.48414
     2018.48049       -12.46678        44.83765
     2018.48323        -9.27853        44.88921
     2018.48596       -19.43229        44.13798
     2018.48870       -19.17604        44.64616
     2018.49144       -10.23280        44.46204
     2018.49418       -20.09055        44.82292
     2018.49692       -13.09031        44.11589
     2018.49965        -6.17806        45.06597
     2018.50239       -20.91782        45.21326
     2018.50513       -17.53557        44.44731
     2018.50787       -11.19833        43.99069
     2018.51060       -14.73308        44.22636
     2018.51334       -14.69684        44.23373
     2018.51608        -9.68959        44.33684
     2018.51882       -21.35835        43.90231
     2018.52156       -11.23010        45.94239
     2018.52429        -5.27886        44.44731
     2018.52703       -12.81061        44.50623
     2018.52977       -15.53637        43.97596
     2018.53251        -6.15012        45.33110
     2018.53525        -7.23788        45.58887
     2018.53798        -9.76363        46.31800
     2018.54072        -4.68339        44.99968
     2018.54346        -7.18514        44.83029
     2018.54620       -10.56490        44.34420
     2018.54893       -10.47765        44.93340
     2018.55167       -14.64641        45.01441
     2018.55441       -13.23016        46.03813
     2018.55715       -10.88292        45.02178
     2018.55989       -16.38267        45.45631
     2018.56262        -8.38142        44.99968
     2018.56536        -3.39018        44.91130
     2018.56810        -8.04193        45.25009
     2018.57084        -9.47669        44.65353
     2018.57357       -16.86844        45.39739
     2018.57631        -9.82620        47.69524
     2018.57905        -8.31195        47.45220
     2018.58179        -1.73771        46.86301
     2018.58453        -3.39246        45.39002
     2018.58726        -9.75022        44.24846
     2018.59000       -14.63597        44.18217
     2018.59274        -7.03073        44.69772
     2018.59548        -2.29048        44.37366
     2018.59822        -6.15924        45.36793
     2018.60095        -7.00099        44.04224
     2018.60369        -7.75175        45.59624
     2018.60643       -12.01650        44.48414
     2018.60917        -4.64626        44.55042
     2018.61190        -3.77201        44.75664
     2018.61464        -8.34477        43.85812
     2018.61738       -10.55352        44.32947
     2018.62012       -11.45128        44.40312
     2018.62286        -0.50403        44.69035
     2018.62559        -9.19579        44.47677
     2018.62833       -13.98154        44.26319
     2018.63107        -8.14030        44.41785
     2018.63381       -12.50305        45.16171
     2018.63655        -8.92581        44.10116
     2018.63928        -8.41556        46.08232
     2018.64202        -6.22032        46.72307
     2018.64476        -6.07207        43.76237
     2018.64750        -8.00783        43.91704
     2018.65023        -8.45758        43.94650
     2018.65297       -14.31333        43.99805
     2018.65571        -9.59909        43.71082
     2018.65845       -10.61384        43.40149
     2018.66119        -2.01060        44.10116
     2018.66392        -3.99335        43.88021
     2018.66666        -9.51911        43.70345
     2018.66940        -2.58486        44.25582
     2018.67214        -8.25962        44.52096
     2018.67488       -12.64637        44.08643
     2018.67761        -9.15013        44.32211
     2018.68035       -14.99088        44.83765
     2018.68309       -13.72264        44.91130
     2018.68583        -5.25339        44.38839
     2018.68856        -8.40915        44.63143
     2018.69130        -6.07490        44.22636
     2018.69404       -11.78066        44.43995
     2018.69678        -9.00241        44.30001
     2018.69952        -8.60217        43.84339
     2018.70225       -13.19292        45.03651
     2018.70499       -11.62068        44.57988
     2018.70773        -9.78543        44.55042
     2018.71047       -18.28219        44.76400
     2018.71321       -11.71794        43.99805
     2018.71594       -12.00170        44.19690
     2018.71868        -9.85545        44.50623
     2018.72142       -13.12021        44.44731
     2018.72416       -16.77396        45.66989
     2018.72689        -9.70672        44.26319
     2018.72963       -16.12847        43.95386
     2018.73237       -13.98123        43.62981
     2018.73511       -13.22998        44.71245
     2018.73785       -11.88874        45.27955
     2018.74058       -10.96849        44.58725
     2018.74332        -7.67724        43.95386
     2018.74606       -14.16400        43.65190
     2018.74880       -13.29675        44.49150
     2018.75154       -13.71851        44.03488
     2018.75427       -12.47026        44.87448
     2018.75701        -9.71502        46.20016
     2018.75975        -8.69477        44.40312
     2018.76249       -12.56053        44.04961
     2018.76522       -11.51928        45.53732
     2018.76796       -13.40004        44.89657
     2018.77070       -10.90979        45.50786
     2018.77344       -11.92955        44.16744
     2018.77618       -12.39830        43.75501
     2018.77891        -9.60306        43.89494
     2018.78165       -14.30481        46.30327
     2018.78439       -15.24657        44.38839
     2018.78713        -9.67932        43.82866
     2018.78987       -15.55608        44.28528
     2018.79260       -16.07383        43.76237
     2018.79534        -7.28459        45.38266
     2018.79808       -18.56134        44.54306
     2018.80082       -15.39210        44.59461
     2018.80355        -7.91185        43.23946
     2018.80629       -11.29761        44.66089
     2018.80903       -10.08736        44.97759
     2018.81177       -14.36612        46.77463
     2018.81451       -14.01587        45.01441
     2018.81724       -13.62363        45.61097
     2018.81998       -11.44538        43.41622
     2018.82272        -4.46414        45.54469
     2018.82546       -14.02389        44.78610
     2018.82820       -16.32864        45.02914
     2018.83093       -19.72540        44.85238
     2018.83367       -15.75915        44.40312
     2018.83641       -12.37691        45.80982
     2018.83915       -13.35066        44.82292
     2018.84188       -16.90942        45.08806
     2018.84462       -18.64917        44.39576
     2018.84736       -13.98793        44.33684
     2018.85010       -11.27668        44.49150
     2018.85284        -9.34644        44.75664
     2018.85557       -11.82319        44.24846
     2018.85831       -12.04395        44.40312
     2018.86105       -12.60570        44.57252
     2018.86379       -11.24646        45.75827
     2018.86653        -8.13821        44.37366
     2018.86926       -18.44797        44.23373
     2018.87200       -10.89872        43.84339
     2018.87474       -13.17748        44.89657
     2018.87748       -16.92923        45.37529
     2018.88021        -7.62399        45.13225
     2018.88295       -11.21574        44.99232
     2018.88569        -6.02850        44.68299
     2018.88843        -9.45425        44.93340
     2018.89117       -41.28401        46.93666
     2018.89390       -43.79876        48.02666
     2018.89664       -17.50552        47.62159
     2018.89938       -11.72227        45.10279
     2018.90212        -2.33803        45.24272
     2018.90485       -12.83178        46.98085
     2018.90759       -28.34454        47.12078
     2018.91033       -27.34429        48.45383
     2018.91307       -50.50105        50.22141
     2018.91581       -16.95780        47.92356
     2018.91854       -20.32055        46.50949
     2018.92128       -11.70731        45.92030
     2018.92402       -17.21906        46.59787
     2018.92676       -13.36982        46.44321
     2018.92950       -13.35057        46.98821
     2018.93223       -16.32833        45.83192
     2018.93497        -6.77808        46.11915
     2018.93771       -11.53384        45.89820
     2018.94045       -10.86359        45.83928
     2018.94318       -12.41835        44.74191
     2018.94592       -15.59810        45.24272
     2018.94866       -14.28986        45.00705
     2018.95140       -11.50361        46.03813
     2018.95414       -12.98537        46.14124
     2018.95687       -18.89112        47.29017
     2018.95961       -40.76988        49.89735
     2018.96235       -16.97163        48.54221
     2018.96509       -26.62239        47.68788
     2018.96783       -18.48014        44.38839
     2018.97056       -32.48590        45.57414
     2018.97330       -18.79665        44.71245
     2018.97604       -19.86441        46.18543
     2018.97878       -15.61216        46.12651
     2018.98151         9.26508        46.93666
     2018.98425         6.51233        49.46282
     2018.98699        11.27557        46.56104
     2018.98973        12.63282        47.44484
     2018.99247        33.29906        46.35483
     2018.99520        -2.84469        48.50538
     2018.99794       -13.91045        46.73044
     2019.00068       -17.55520        45.61833
     2019.00342       -23.50396        46.02341
     2019.00616       -22.49571        45.62570
     2019.00889       -19.15946        44.87448
     2019.01163       -17.90822        45.27218
     2019.01437        26.80703        45.19853
     2019.79470        -2.41463        46.31064
     2019.79739        -9.86886        46.98821
     2019.80013       -11.42962        46.19280
     2019.80287       -13.70137        44.95549
     2019.80561       -10.58812        45.54469
     2019.80835       -14.57688        45.38266
     2019.81108        -3.98463        44.73454
     2019.81382        -9.03739        45.13961
     2019.81656       -12.32414        45.66989
     2019.81930        -3.71490        44.49150
     2019.82203        -7.58365        44.77873
     2019.82477       -13.17741        45.73617
     2019.82751        -9.66916        44.84502
     2019.83025        -7.29292        45.99395
     2019.83299        -5.86767        45.70671
     2019.83572        -3.78943        44.69772
     2019.83846        -6.58318        45.11752
     2019.84120        -6.11994        44.97022
     2019.84394        -9.30169        45.51523
     2019.84668        -9.67745        44.49887
     2019.84941        -7.18020        45.23536
     2019.85215       -11.39696        46.25172
     2019.85489       -10.91071        45.28691
     2019.85763        -8.17147        45.52259
     2019.86036        -7.02222        45.73617
     2019.86310        -7.21598        45.48577
     2019.86584        -4.84873        46.02341
     2019.86858        -1.99949        46.77463
     2019.87132        -6.82524        45.94239
     2019.87405        -9.27700        44.93340
     2019.87679        -5.32075        45.80982
     2019.87953        -3.99351        44.92603
     2019.88227         6.96774        46.75253
     2019.88501         0.37598        44.80819
     2019.88774        -4.22377        45.15434
     2019.89048        -2.20053        44.16008
     2019.89322        -0.52728        44.01278
     2019.89596        -4.47903        45.05124
     2019.89869        -6.84679        45.93503
     2019.90143        -2.67654        44.38103
     2019.90417         3.38370        44.72718
     2019.90691       -11.21905        44.33684
     2019.90965       -10.18281        44.89657
     2019.91238        -2.39056        45.02914
     2019.91512       -20.34632        47.54058
     2019.91786       -32.76607        48.04139
     2019.92060       -10.50383        48.54957
     2019.92607       -13.45534        46.46530
     2019.92881        -8.19109        48.68214
     2019.93155        -9.73485        47.06922
     2019.93429       -14.63260        47.61423
     2019.93702       -14.78036        45.67725
     2019.93976       -17.84511        45.20590
     2019.94250       -27.10587        45.19117
     2019.94524       -32.05562        47.02503
     2019.94798       -21.95738        47.62159
     2019.95071       -16.54813       106.76193
     2019.95345       -14.34689        58.41857
     2019.95619       -16.71364        44.25582
     2019.95893       -19.93935        45.43421
     2019.96167       -15.77815        44.73454
     2020.17924        -4.16401       176.26471
     2020.17960       -11.80937       113.11786
     2020.19816       -25.06376        92.89378
     2022.59822       -16.57607        67.21229
     2022.60095        -3.29782        64.12639
     2022.60369         5.48842        60.06831
     2022.60643        13.36067        62.86698
     2022.60917        12.38691        63.38989
     2022.61190        16.76516        57.77782
     2022.61464         9.82140        61.66650
     2022.61738        17.96965        64.39152
     2022.62012         3.23089        65.09119
     2022.62254         4.52497        76.74250
     2022.62671        19.96450       113.31671
     2022.62833        -0.90637        46.20016
     2022.63107         1.37587        47.05449
     2022.63381         4.42212        45.25745
     2022.63655         2.49736        45.22799
     2022.63928         5.47861        44.92603
     2022.64202        -0.60315        48.41701
     2022.64476         1.64610        48.79262
     2022.64750         4.27635        46.14861
     2022.65023         4.08359        45.83192
     2022.65297        10.81684        45.64043
     2022.65571         7.94808        46.31800
     2022.65845         5.59533        46.60523
     2022.66119        14.89757        49.13140
     2022.66392         7.23482        45.36056
     2022.66666         5.30206        44.15271
     2022.66940        10.51431        44.95549
     2022.67214         4.53255        45.18380
     2022.67488         5.79980        45.33110
     2022.67761         9.88004        45.06597
     2022.68035        15.17529        45.51523
     2022.68309         9.69353        46.05286
     2022.68583        12.63478        48.65268
     2022.68856        11.96502        46.75990
     2022.69130        11.14327        46.25908
     2022.69404         9.48551        46.61996
     2022.69678         4.83976        45.71408
     2022.69952         2.04800        47.15760
     2022.70225        16.20225        46.42848
     2022.70499        13.28149        46.37692
     2022.70773         3.31274        45.64779
     2022.71047         9.93598        46.20753
     2022.71321         9.57123        46.09705
     2022.71594         2.77047        47.12078
     2022.71868         7.11572        46.05286
     2022.72142        -0.39104        44.74191
     2022.72416        -4.41379        46.36956
     2022.72689        10.30845        46.56841
     2022.72963         9.30270        45.75827
     2022.73237         8.42394        45.51523
     2022.73511        10.69219        45.34583
     2022.73785         5.10944        46.00868
     2022.74058        10.14768        46.64206
     2022.74332        12.01993        47.23862
     2022.74606         8.90917        46.08232
     2022.74880         5.29642        44.62407
