# ================= DQRFIT RESULTS ================
# INPUT FILE: series/P699.rad
# OUTPUT: LDETRENDED
# FILTER FUNCTION: f(t)
# f(t)=+line(t)+annual(t)+jumps(t)
# line(t)=+P 1+P 2*t
# annual(t)=+P 3*sin(2*pi*t+P 4)
# jumps(t)=+P 5*heav(t-2006.0000  )
# heav(t)=(t<0?0:1)
# TOTAL OBSERVATIONS MTOT= 2567
# INITIAL TIME INTERVAL= 2014.4473 - 2005.0924 =  9.3549
# TOTAL OBSERVATIONS AFTER PREFILTER M= 2472
# TIME-SPAN= 2014.4473 - 2005.0924 =  9.3549
# OBSERVATIONS: USED M=  2472 REJECTED MTOT-M=    95 %USED=   96.2992
# N=  5 PARAMETERS
# MAXSIG= 175.00000
# MAXRES=  68.54286
# SCALE FACTOR FOR LENGTHS: SCL=  10.00000
# SCALE FACTOR FOR SIGMAS: SCLSIG=   1.00000
# CHI^2=  16951.698 DOF=  2467 CHI^2/DOF=   6.87138
# RMS=     16.288 SDEV=     16.288 MEAN=    0.33802
#  P #       PARAMETER +-    SIGMA %error PARAMETER NAME
# P 1 =      5094.98925 +-  312.870   6.14 YZERO                              
# P 2 =        -2.52384 +-    0.156   6.18 SLOPE                              
# P 3 =        10.29488 +-    0.466   4.53 ANNUAL AMPLITUDE                   
# P 4 =         1.74796 +-    0.012   0.68 ANNUAL PHASE                       
# P 5 =       -12.62852 +-    1.307  10.35 OFFSET 2006.0000                   
#       T            LDETRENDED       SIG_OBS
     2005.09240       -10.50315        15.88527
     2005.09514        -7.05424        15.69129
     2005.09787         2.21767        15.63362
     2005.10061         4.22258        15.29547
     2005.10335        17.43049        15.43965
     2005.10609        -3.15560        16.36235
     2005.10882        -9.72169        16.29944
     2005.11156       -11.29878        15.72799
     2005.11430        -3.25987        15.60741
     2005.11704        -3.78096        15.52877
     2005.11978        -8.09405        15.62314
     2005.12251        -9.96414        15.68605
     2005.12525       -10.97923        15.69654
     2005.12799       -11.59232        15.61003
     2005.13073        -6.22641        15.80663
     2005.13347        -8.82350        15.64149
     2005.13620         0.84041        15.67819
     2005.13894        -5.37268        15.76207
     2005.14168        -8.07377        15.77518
     2005.14442        -7.26486        15.61790
     2005.14715        -6.79795        15.79615
     2005.14989        -4.88904        15.97702
     2005.15263        -1.88713        15.69654
     2005.15537        -3.27422        15.86430
     2005.15811        -1.70831        15.60217
     2005.16084         0.83460        15.75421
     2005.16358        -2.42349        15.82760
     2005.16632         3.66442        15.80925
     2005.16906        -5.98567        15.82236
     2005.17180        -3.59276        15.77255
     2005.17453        -3.49585        15.92983
     2005.17727         0.87506        15.79615
     2005.18001        -1.23503        15.96915
     2005.18275        -4.07512        15.83285
     2005.18548        -4.25021        15.99013
     2005.18822        -2.93530        15.72799
     2005.19096        -4.10639        15.94032
     2005.19370         1.11552        15.99275
     2005.19644        -6.50657        15.92197
     2005.19917        -4.73266        15.79353
     2005.20191        -2.03775        16.23653
     2005.20465        -0.90484        16.23129
     2005.20739        -4.12493        16.05304
     2005.21013       -11.87402        16.22867
     2005.21286        -1.42411        15.97440
     2005.21560        20.06480        15.98750
     2005.21834        15.20271        16.09236
     2005.22108        13.90162        16.25226
     2005.22381        14.12453        16.12643
     2005.22655        13.83844        16.06352
     2005.22929        27.81634        15.69916
     2005.23203        26.82425        15.77780
     2005.23477        29.28716        15.90362
     2005.23750        16.25207        16.22605
     2005.24024         9.45498        16.26274
     2005.24298        26.03789        16.19459
     2005.24572        17.07180        16.24702
     2005.24846         7.88671        16.01372
     2005.25119        11.76362        16.00061
     2005.25393        19.03153        16.83419
     2005.25667        16.34944        16.75555
     2005.25941        16.26635        16.67954
     2005.26214         5.12626        16.18673
     2005.26488         4.04517        16.82109
     2005.26762         9.61708        16.32828
     2005.27036        13.25299        16.80798
     2005.27310         8.49990        16.32566
     2005.27583         8.50281        16.60090
     2005.27857         3.71172        16.20507
     2005.28131         5.64963        16.24964
     2005.28405        -0.63146        16.64808
     2005.28679         6.01945        16.26274
     2005.28952        -2.06164        16.57468
     2005.29226        -1.45173        16.81847
     2005.29500         3.56318        16.42527
     2005.29774         7.78609        17.47118
     2005.30047        32.93800        16.58517
     2005.30321        13.51091        16.52750
     2005.30595        -6.45518        16.24439
     2005.30869         3.01573        15.89838
     2005.31143        -3.92936        15.86168
     2005.31416        -7.11845        15.89838
     2005.31690        -2.07654        16.07139
     2005.31964         0.13737        16.13430
     2005.32238        -2.31972        16.39905
     2005.32512         2.68519        15.88265
     2005.32785       -13.54290        15.96129
     2005.33059        -4.60899        15.89838
     2005.33333         1.04392        15.89576
     2005.33607        -1.88217        16.21818
     2005.33880         1.91074        15.89051
     2005.34154         1.20465        15.79353
     2005.34428         0.11056        15.72537
     2005.34702         0.41447        15.81974
     2005.34976        -5.74062        15.82498
     2005.35249        -1.56471        15.82236
     2005.35523         1.21020        16.22867
     2005.35797        -3.66489        16.25488
     2005.36071        -8.23598        16.28371
     2005.36344        -5.86007        16.44624
     2005.36618        -2.71716        16.51177
     2005.36892        -7.22225        16.92070
     2005.37194        -3.14062        18.25233
     2005.37440        -1.55543        16.69264
     2005.37770         6.46292        22.47530
     2005.37987         7.55839        16.65070
     2005.38261        14.58530        16.43575
     2005.38535         9.45921        16.31517
     2005.38809        11.81812        16.39643
     2005.39082        -0.74697        16.29682
     2005.39356       -17.45306        16.49604
     2005.39630       -13.77415        16.33090
     2005.39904        -9.60824        16.40430
     2005.40177       -10.11733        16.20770
     2005.40451        -1.65542        16.37022
     2005.40725         0.07949        16.46459
     2005.41027       -10.76588        18.43321
     2005.41273       -11.37069        16.34925
     2005.41546         2.98322        16.06352
     2005.41820        -9.29887        16.01634
     2005.42094       -13.71596        15.90100
     2005.42368        -6.45505        16.22080
     2005.42642        -9.19014        16.09498
     2005.42915       -11.57623        15.95605
     2005.43189        -3.16432        16.00061
     2005.43463        -9.04141        15.94294
     2005.43737        -6.44450        16.36235
     2005.44010       -15.45059        16.66905
     2005.44284        -2.14268        16.77915
     2005.44558       -15.98777        16.55371
     2005.44832        -7.01186        16.33876
     2005.45106        -9.60695        16.14478
     2005.45379        -5.29304        15.98226
     2005.45653        -7.31413        16.28634
     2005.45927        -6.64722        15.94294
     2005.46201        -2.03831        16.01372
     2005.46475        -7.46740        16.03993
     2005.46748        -6.36349        15.95605
     2005.47022        -7.73258        16.29420
     2005.47296       -13.63267        15.93508
     2005.47570       -10.91976        15.90624
     2005.47843        -8.74585        15.88789
     2005.48117        -8.33194        15.96129
     2005.48391       -12.07403        15.94556
     2005.48665        -8.58812        15.80663
     2005.48939       -11.14621        15.69916
     2005.49212        -8.17030        16.17886
     2005.49486        -5.25039        15.88789
     2005.49760       -11.65248        16.11595
     2005.50034        -9.01757        16.03207
     2005.50308        -9.03867        15.84857
     2005.50581        -9.94176        15.79615
     2005.50855        -6.87985        15.91411
     2005.51129       -12.51294        16.06877
     2005.51403       -12.78803        15.87741
     2005.51676        -8.63812        15.81450
     2005.51950        -0.86821        15.96653
     2005.52224        -5.58230        16.08711
     2005.52498        -3.22939        15.86430
     2005.52772        -7.20848        15.90100
     2005.53045        -8.01957        15.80925
     2005.53319        -2.61266        16.04255
     2005.53593        -4.57975        15.83547
     2005.53867        -3.66484        16.11595
     2005.54141        -5.97993        15.85644
     2005.54414        -3.75402        15.80925
     2005.54688        -5.76911        15.96915
     2005.54962        -6.25520        16.01634
     2005.55236        -3.32929        15.83285
     2005.55509        -4.32138        16.21032
     2005.55783        -3.63647        15.82760
     2005.56057        -5.30356        16.38333
     2005.56331         0.79435        16.48556
     2005.56605         0.87326        16.61662
     2005.56878        -0.91483        16.61400
     2005.57152       -11.21592        16.84468
     2005.57426        -7.35101        16.22342
     2005.57700        -4.81010        16.18148
     2005.57974        -0.30219        16.19721
     2005.58276         1.99944        18.92864
     2005.58521        -2.52537        16.04517
     2005.58795        -3.55746        15.73061
     2005.59069        -3.69855        15.84595
     2005.59399         0.63180        19.96931
     2005.59616         1.99227        15.72013
     2005.59890        -1.27982        15.69391
     2005.60164         1.36309        15.60217
     2005.60438        -1.34400        15.80663
     2005.60711        -1.68509        15.81450
     2005.60985        -2.09918        16.19983
     2005.61259         2.58873        16.23391
     2005.61533        -0.04336        15.67032
     2005.61807         4.22155        15.70178
     2005.62080         5.87746        16.11071
     2005.62354         1.58637        16.31779
     2005.62628         4.64928        16.10546
     2005.62902         0.19219        16.00323
     2005.63175        -1.56890        15.70702
     2005.63449         3.94501        15.84333
     2005.63723         3.60692        15.85906
     2005.63997        -2.18317        15.97702
     2005.64271        -0.06526        15.74634
     2005.64544        -1.37235        15.65722
     2005.64818        -3.76244        15.63100
     2005.65092         2.70547        15.80139
     2005.65366        -1.27462        15.84333
     2005.65639        -1.96071        15.65984
     2005.65913        -0.04280        15.70178
     2005.66187        -1.69089        15.64673
     2005.66461         1.13702        15.76469
     2005.66735         0.88093        15.84333
     2005.67008         3.83384        15.89576
     2005.67282         1.48675        15.80401
     2005.67556         3.22866        15.68605
     2005.67830        -4.61943        15.83809
     2005.68104        -5.63752        15.94294
     2005.68377        -2.99061        16.17886
     2005.68651         1.04530        16.04779
     2005.68925         0.11321        15.97440
     2005.69199        -7.57688        15.91411
     2005.69472         0.87603        16.04517
     2005.69746        -3.72006        16.10546
     2005.70020         8.61085        16.46459
     2005.70294        10.07076        16.18935
     2005.70568        -1.40933        16.02158
     2005.70841         1.33158        16.12381
     2005.71115        -0.14651        15.73061
     2005.71389         4.19740        15.77518
     2005.71663         5.06431        16.10284
     2005.71937         4.39322        15.55236
     2005.72210        -2.72287        16.23915
     2005.72484         1.79004        15.73323
     2005.72815         3.10139        19.70455
     2005.73032        -0.83214        16.11857
     2005.73425         0.26779        53.25498
     2005.73682         8.36827        34.90041
     2005.73853         5.44559        16.04779
     2005.74127         2.81250        15.95605
     2005.74486        12.66857        25.05993
     2005.74674         2.90332        15.67294
     2005.74948        -1.64877        15.69654
     2005.75222        -8.81786        15.94032
     2005.75496        -7.21695        15.92459
     2005.75815        -7.25589        18.57738
     2005.76169       -14.40097        57.15552
     2005.76317         3.74478        15.71226
     2005.76619         5.70941        16.77652
     2005.76865        -1.97440        15.76469
     2005.77138        -3.50749        15.71226
     2005.77412         1.81141        15.72799
     2005.77686         1.65832        16.06877
     2005.77960        -1.70677        16.10284
     2005.78234         2.46514        16.17624
     2005.78507        -2.53295        15.61790
     2005.78781        25.34796        15.68081
     2005.79180         5.21004        56.27738
     2005.79329         6.45278        15.71489
     2005.79603         8.35869        15.99537
     2005.79876         1.69460        16.08711
     2005.80429        -2.45446        15.99537
     2005.80698        -1.18567        15.68081
     2005.80971         5.95024        15.70440
     2005.81245         1.64115        15.88789
     2005.81519         2.87906        15.68605
     2005.81793        -2.71403        16.16313
     2005.82067        -7.86112        15.62052
     2005.82340         7.35179        15.56023
     2005.82614        11.33470        15.63625
     2005.82888         4.39461        15.57333
     2005.83162        -2.44048        17.33749
     2005.83436        -6.81957        16.89186
     2005.83709       -14.80066        16.43575
     2005.83983       -10.93475        16.49866
     2005.84257         0.99116        16.71623
     2005.84531        -9.56893        17.47380
     2005.84804        11.33798        17.73593
     2005.85078         6.88689        16.96002
     2005.85352        -3.93120        16.90497
     2005.85626        -4.01929        17.42924
     2005.85900         0.66062        16.70313
     2005.86173        -2.75547        16.45148
     2005.86447        -0.31056        16.13168
     2005.86721         3.66335        16.18935
     2005.86995         6.19826        16.60614
     2005.87269         4.52017        16.27323
     2005.87542        -3.96392        16.00323
     2005.87816       -21.71201        15.71751
     2005.88090       -11.60010        15.74110
     2005.88364       -12.60519        15.64673
     2005.88637        -8.34628        15.83285
     2005.88911        -5.70337        16.21294
     2005.89185        -5.87446        15.83809
     2005.89459        -2.17255        15.78566
     2005.89733       -10.13864        15.85119
     2005.90006        -7.13673        15.73061
     2005.90280        -6.98682        15.82760
     2005.90554        -7.99791        15.74896
     2005.90828       -15.53900        15.76207
     2005.91102        -1.06509        15.84071
     2005.91375        -2.49318        15.57071
     2005.91649        -4.25627        15.84595
     2005.91923         6.14064        15.67032
     2005.92197         6.70055        15.56547
     2005.92470        -0.44254        15.85644
     2005.92744        -8.79563        15.62052
     2005.93018        -9.10772        15.61527
     2005.93292       -13.58081        15.52615
     2005.93566       -15.41790        15.64935
     2005.93839        -8.68399        15.83285
     2005.94113        -8.33208        15.79353
     2005.94387        -6.17817        15.61265
     2005.94661        -5.18926        15.60479
     2005.94935       -17.01935        15.45013
     2005.95098         4.77878        37.31990
     2005.95502       -20.11104        33.90693
     2005.95756       -14.12961        25.02848
     2005.95998        -7.32652        42.89548
     2005.96387       -18.10470        29.44018
     2005.96673         8.12052        69.65694
     2005.97485        33.43001       890.82170
     2005.98312       -17.24812        39.70269
     2006.53099         9.05562        53.98109
     2006.53251       -18.38354        17.00458
     2006.53525       -15.07563        16.61925
     2006.53798       -13.27872        16.79487
     2006.54072       -23.71881        17.08846
     2006.54346       -14.25490        16.32828
     2006.54620       -19.18099        16.33352
     2006.54893       -15.25608        16.25488
     2006.55167       -17.97217        16.39643
     2006.55441       -13.26426        16.37546
     2006.55715       -11.58535        16.62187
     2006.55989       -10.82344        16.20245
     2006.56262       -13.09653        15.92983
     2006.56536       -11.46062        16.21294
     2006.56810       -14.54471        16.12381
     2006.57084        -8.98280        16.57993
     2006.57357       -13.76189        16.43313
     2006.57631       -13.45898        16.17886
     2006.57905       -10.57107        16.16051
     2006.58179       -12.79716        16.32828
     2006.58453       -15.25525        16.93905
     2006.58726        -9.86634        16.87876
     2006.59000       -11.45643        17.01244
     2006.59274       -11.54653        16.55633
     2006.59548       -14.66962        16.85516
     2006.59822       -13.48071        16.80012
     2006.60095       -11.10480        16.29158
     2006.60369       -13.19189        16.29682
     2006.60643       -16.98798        16.12381
     2006.60917       -13.87807        16.19197
     2006.61190       -15.28916        16.21818
     2006.61464       -12.40225        16.24439
     2006.61738       -11.05434        16.48031
     2006.62012       -10.49943        16.33352
     2006.62286        -9.14052        16.14478
     2006.62559       -12.10261        16.15527
     2006.62833       -14.70070        16.50653
     2006.63107       -12.58179        16.38333
     2006.63381        -8.19888        16.22867
     2006.63655       -10.32997        16.35187
     2006.63928       -10.36706        16.31255
     2006.64202        -9.23715        16.30469
     2006.64476        -5.46324        16.61662
     2006.64750        -2.33333        17.13040
     2006.65023        -0.83342        17.10681
     2006.65297        -9.43851        17.16186
     2006.65571        -6.64860        17.09108
     2006.65845        -6.07269        17.11992
     2006.66119       -13.38878        17.31652
     2006.66392       -10.87387        17.21691
     2006.66666       -10.80496        16.99934
     2006.66940        -6.97905        16.88138
     2006.67214       -10.31414        17.00196
     2006.67488        -6.56223        17.37943
     2006.67761       -14.86632        17.43972
     2006.68035        -6.98441        17.04390
     2006.68309        -2.02150        17.64156
     2006.68583        -2.45659        17.67564
     2006.68856        -3.41968        16.80012
     2006.69130        -6.14277        16.86041
     2006.69404        -9.70386        16.65856
     2006.69678       -10.75695        16.57206
     2006.69952        -0.83804        16.45672
     2006.70225         3.08087        17.04390
     2006.70499        -7.30222        16.65070
     2006.70773        -9.33831        16.29420
     2006.71047        -3.84740        16.32041
     2006.71321         3.68451        16.50129
     2006.71594        -0.98558        16.24439
     2006.71868       -16.55467        16.27585
     2006.72142        -0.19476        16.67167
     2006.72416        -7.13985        16.86827
     2006.72689        -2.82994        16.51177
     2006.72963        -1.76703        16.45410
     2006.73237        -0.94112        16.24702
     2006.73511        -5.95021        16.46197
     2006.73785       -11.36730        18.38340
     2006.74058        -6.77439        16.33090
     2006.74332        -7.81648        16.49342
     2006.74606        -6.59457        16.53274
     2006.74880        -8.51866        16.54585
     2006.75154       -11.72475        16.82633
     2006.75427       -12.09984        16.78177
     2006.75701       -10.55193        16.37022
     2006.75975        -4.25802        16.28109
     2006.76249        -8.64311        16.61662
     2006.76522        -9.97820        16.81060
     2006.76796       -14.13529        16.95478
     2006.77070       -11.06438        16.30206
     2006.77344       -12.67447        16.26012
     2006.77618        -7.31256        16.38333
     2006.77891        -2.43165        16.30993
     2006.78165        -2.67474        15.84333
     2006.78439        -9.35483        15.83809
     2006.78713        -2.78992        16.53274
     2006.78987        -6.77301        16.08187
     2006.79260       -10.99210        16.03469
     2006.79534       -20.59119        16.33090
     2006.79808       -10.91228        16.00585
     2006.80082       -12.15337        16.27061
     2006.80355       -15.73946        15.92983
     2006.80629       -12.33955        16.01896
     2006.80903        -9.64864        15.96915
     2006.81177        -5.75773        16.28634
     2006.81451        -3.48882        16.26012
     2006.81724       -19.80491        16.19721
     2006.81998       -12.78000        15.91149
     2006.82272       -15.48209        15.87217
     2006.82546         1.00782        16.00061
     2006.82820         7.55773        15.77255
     2006.83093        -7.76736        15.57071
     2006.83367        -9.34745        15.86168
     2006.83641        -8.22854        15.99537
     2006.83915       -19.60363        15.94032
     2006.84188       -21.99072        16.35187
     2006.84462       -12.75381        16.10284
     2006.84736       -22.42590        15.91935
     2006.85010       -19.14099        16.36760
     2006.85284       -10.68408        16.77652
     2006.85557        -5.59317        16.50653
     2006.85831       -10.43226        16.35187
     2006.86105        -1.55335        16.53536
     2006.86379         4.44256        16.69526
     2006.86653         3.79546        16.49080
     2006.86926         3.21237        15.91149
     2006.87200         2.44428        16.30993
     2006.87474        33.85319        16.19459
     2006.87748        28.94810        16.22080
     2006.88021        29.29001        16.36235
     2006.88295         9.83692        17.54458
     2006.88569         9.90383        16.63759
     2006.88843         8.19174        16.61925
     2006.89117         5.90065        16.24177
     2006.89390         1.07856        17.10943
     2006.89664        -0.10553        16.72410
     2006.89938        -2.18062        16.35711
     2006.90212        -1.46971        16.46459
     2006.90485        -1.27380        16.39381
     2006.90759         4.74611        16.42527
     2006.91033        -1.72898        16.55371
     2006.91307         7.44493        16.55895
     2006.91581         1.74284        16.46983
     2006.91854        -1.51525        16.00585
     2006.92128        -4.92734        16.03207
     2006.92402        -7.73743        16.54323
     2006.92676       -12.98252        16.39905
     2006.92950       -20.42561        16.66905
     2006.93223       -15.79170        16.71361
     2006.93497         2.99921        17.58127
     2006.93771         1.24812        16.33614
     2006.94045         6.20303        16.49866
     2006.94318        14.60194        16.39381
     2006.94592        18.97385        16.45934
     2006.94866        34.99976        16.63497
     2006.95140        47.96667        16.52226
     2006.96235        33.44131        17.14089
     2006.96509        32.95922        17.04128
     2006.98151        33.86568        16.80798
     2006.99247        24.97932        17.73069
     2007.00342         9.63696        18.56689
     2007.00616        24.99187        20.10824
     2007.00889        32.53678        19.39524
     2007.01163        32.43069        18.87883
     2007.01437        27.71560        19.34019
     2007.01711        29.06651        19.48436
     2007.02806        28.44015        19.63902
     2007.03080        20.53406        19.58135
     2007.03353        -4.74003        19.40310
     2007.03627       -19.03412        20.09251
     2007.03901       -44.22821        20.49357
     2007.04156       -45.06177        21.15677
     2007.42048       -16.60243        26.34177
     2007.42231       -17.88683        26.57506
     2007.42505       -21.44192        25.59206
     2007.42778       -31.84801        17.46331
     2007.43052       -26.98110        15.28499
     2007.43326       -28.28019        15.18800
     2007.43600       -31.30628        15.32693
     2007.43874       -28.51737        15.33479
     2007.44147       -29.19246        15.62576
     2007.44421       -30.77755        15.79877
     2007.44695       -33.93764        15.48421
     2007.44969       -33.78073        15.52091
     2007.45243       -30.51882        15.31906
     2007.45516       -32.93491        15.22470
     2007.45790        -1.19000        15.41867
     2007.46064       -29.55309        15.39770
     2007.46338       -24.33918        15.42654
     2007.46611       -28.64527        15.38198
     2007.46885       -24.10336        15.28499
     2007.47159       -28.19445        15.50256
     2007.47433       -25.04154        15.46848
     2007.47707       -31.29263        15.75158
     2007.47980       -39.47072        15.31120
     2007.48254       -34.72081        15.38722
     2007.48528       -31.08190        15.40295
     2007.48802       -41.69199        15.44751
     2007.49076       -20.34408        15.62314
     2007.49349       -29.13217        15.47897
     2007.49623       -28.53326        15.43178
     2007.49897       -32.48235        15.36625
     2007.50171       -28.48444        15.35838
     2007.50444       -28.13953        15.52091
     2007.50718       -31.22162        15.37149
     2007.50992       -28.78771        15.36887
     2007.51266       -32.74480        15.56547
     2007.51540       -29.79489        15.29547
     2007.51813       -25.85698        15.34528
     2007.52087       -27.50207        15.24829
     2007.52361       -28.07416        15.43702
     2007.52635       -26.28325        15.25353
     2007.52908       -21.92434        15.39508
     2007.53182       -20.50443        15.48159
     2007.53456       -20.11452        15.69916
     2007.53730       -20.68161        15.31906
     2007.54004       -22.16270        15.42916
     2007.54277       -24.66879        15.38984
     2007.54551       -17.17988        15.65722
     2007.54825       -24.00797        15.47634
     2007.55099       -19.61406        15.34003
     2007.55373       -29.39615        15.28761
     2007.55646       -24.21524        15.15130
     2007.55920       -17.15933        15.27188
     2007.56194       -14.96942        15.30858
     2007.56468       -19.52251        15.29285
     2007.56741       -24.54860        15.23780
     2007.57015       -18.87169        15.13819
     2007.57289       -21.98378        15.23780
     2007.57563       -19.83487        15.16703
     2007.57837       -22.28496        15.25353
     2007.58110       -19.03405        15.16965
     2007.58384       -20.84014        15.33741
     2007.58658       -19.85223        15.40295
     2007.58932       -21.58032        15.23518
     2007.59206       -17.24141        15.34528
     2007.59479       -12.07150        15.62576
     2007.59753       -19.53359        15.43702
     2007.60027       -16.05968        15.20110
     2007.60301       -13.32177        15.35052
     2007.60574       -13.64986        15.31120
     2007.60848       -20.22695        15.15130
     2007.61122       -10.91204        15.40819
     2007.61396       -22.94913        15.19324
     2007.61670       -19.44722        16.52750
     2007.61943       -11.71131        16.55109
     2007.62217       -15.52840        15.78828
     2007.62491       -14.53149        15.71489
     2007.62765       -12.42358        16.12906
     2007.63039       -15.86167        16.08449
     2007.63312       -16.28776        15.60217
     2007.63586       -15.79185        15.76207
     2007.63860       -20.11394        15.74634
     2007.64134       -16.50503        15.35576
     2007.64407       -10.81612        15.92459
     2007.64681       -18.64321        15.81974
     2007.64955       -11.05230        16.23915
     2007.65229       -16.76239        16.17886
     2007.65503       -13.42548        15.89051
     2007.65776       -17.29057        15.69129
     2007.66050       -11.89766        15.83285
     2007.66324       -13.59575        15.81712
     2007.66598       -11.34484        15.75158
     2007.66872       -16.34393        16.07139
     2007.67145       -14.87802        16.06352
     2007.67419       -14.50911        15.88265
     2007.67693        -6.11320        15.58382
     2007.67967        -8.79429        16.18935
     2007.68240        -9.35538        15.74110
     2007.68514        -8.31348        16.22605
     2007.68788       -13.13957        16.14216
     2007.69062       -10.95066        15.79090
     2007.69336       -11.71175        15.69391
     2007.69609       -10.96784        15.92459
     2007.69883       -11.46493        16.13430
     2007.70157       -13.15702        16.02682
     2007.70431        -7.47711        16.46459
     2007.70705       -10.65320        15.93246
     2007.70978        -4.68529        15.87479
     2007.71252       -10.55838        15.95605
     2007.71526        -9.74247        15.55761
     2007.71800       -10.33956        15.72799
     2007.72073       -10.78965        15.42916
     2007.72347        -9.13674        15.75945
     2007.72621       -13.39983        15.32693
     2007.72895       -10.21192        15.63625
     2007.73169       -13.82601        15.65984
     2007.73442       -12.40810        15.57333
     2007.73716       -13.04719        15.84595
     2007.73990       -10.52728        15.44489
     2007.74264       -16.49637        15.46324
     2007.74538        -0.81146        15.91935
     2007.74811        11.53845        15.97440
     2007.75085        11.20536        17.20642
     2007.75359         9.57827        16.49604
     2007.75633         8.67718        15.69916
     2007.75906         9.04909        15.72537
     2007.76180         6.77800        15.96653
     2007.76454        -7.01109        15.62314
     2007.76728       -15.88918        16.72672
     2007.77002       -10.26227        16.94429
     2007.77275       -18.06336        16.40692
     2007.77549       -17.90645        15.29285
     2007.77823       -15.34254        15.41605
     2007.78097       -14.16363        15.65197
     2007.78371       -12.50972        15.48159
     2007.78644        -7.36081        15.27712
     2007.78918       -14.06090        15.50256
     2007.79192       -17.79399        15.76993
     2007.79466        -9.05508        15.96915
     2007.79739       -11.67817        15.64149
     2007.80013        -7.67826        15.51566
     2007.80287       -11.51835        15.44227
     2007.80561       -13.64544        15.60741
     2007.80835       -17.51353        15.88789
     2007.81108       -16.04862        15.99799
     2007.81382       -21.05971        15.81974
     2007.81656       -23.39180        16.05566
     2007.81930       -17.09889        15.67819
     2007.82203       -20.63198        15.70440
     2007.82477       -19.69307        15.92459
     2007.82751       -20.78216        15.75945
     2007.83025       -19.62925        15.74110
     2007.83299       -21.11134        15.53926
     2007.83572       -18.87343        15.38460
     2007.83846       -19.60152        15.53139
     2007.84120       -20.15961        15.55761
     2007.84394       -23.77770        15.65722
     2007.84668       -21.62079        15.67819
     2007.84941       -21.14188        15.70178
     2007.85215       -19.12497        16.19721
     2007.85489       -16.89706        16.39643
     2007.85763       -13.58215        16.00847
     2007.86036       -21.34124        15.66508
     2007.86310       -19.60633        16.02420
     2007.86584         8.56958        16.23129
     2007.86858       -11.62651        15.84857
     2007.87132       -24.72760        15.88265
     2007.87405       -22.24669        16.10284
     2007.87679        -3.49378        16.23129
     2007.87953        -6.39687        15.99013
     2007.88227       -17.53096        15.61527
     2007.88501       -26.80705        15.83022
     2007.88774       -36.68914        15.85906
     2007.89048       -37.42023        15.50780
     2007.89322       -28.17032        16.19459
     2007.89596       -21.11941        16.36760
     2007.89869       -28.50550        15.77780
     2007.90143       -26.44159        15.57071
     2007.90417       -30.55768        15.76469
     2007.90691       -28.79377        15.61003
     2007.90965       -32.72786        15.72537
     2007.91238       -33.07095        15.66770
     2007.91512       -27.75304        15.75683
     2007.91786       -23.98513        15.69129
     2007.92060       -24.58322        16.40692
     2007.92334       -31.44931        16.12906
     2007.92607       -24.42340        16.01896
     2007.92881       -28.90549        16.05828
     2007.93155       -33.23958        15.86954
     2007.93429       -37.66967        15.76993
     2007.93702       -30.75676        15.93246
     2007.93976       -29.31085        16.06090
     2007.94250       -31.02994        16.14741
     2007.94524       -29.18303        16.51701
     2007.94798       -32.95312        16.07925
     2007.95071       -30.20021        15.98226
     2007.95345       -13.99230        16.14478
     2007.95619       -15.50640        16.05566
     2007.95893       -11.13249        16.27061
     2007.96167       -10.88858        16.07663
     2007.96440        -8.84567        16.01110
     2007.96714       -14.90676        16.00847
     2007.96988       -22.26985        16.18673
     2007.97262       -18.92694        16.21818
     2007.97535       -20.65003        16.23915
     2007.97809        -9.65812        16.33876
     2007.98083        -9.57321        16.18410
     2007.98357       -15.89930        16.34925
     2007.98631       -19.76039        16.51439
     2007.98904       -12.06948        16.34925
     2007.99178        -2.83457        16.59041
     2007.99452        -8.07266        16.70313
     2007.99726        -8.10675        16.26537
     2008.00000       -25.67184        16.95215
     2008.00273       -11.93193        16.11595
     2008.00547         3.06398        15.75421
     2008.00821        -6.18411        16.06352
     2008.01095        13.70380        15.54188
     2008.01368        13.44071        15.97178
     2008.01642        14.83362        16.19197
     2008.01916        15.19853        16.37284
     2008.02190        15.98244        16.50653
     2008.02464        23.27035        16.38595
     2008.02737         9.76426        15.70440
     2008.03011         1.32217        16.55371
     2008.03285       -12.31092        16.29420
     2008.03559        -4.77601        16.31255
     2008.03833        -2.63710        15.98226
     2008.04106         1.06881        16.83157
     2008.04380         9.35272        16.39119
     2008.04654        -7.90237        16.21818
     2008.04928       -23.71246        15.78042
     2008.05201       -22.02455        15.69129
     2008.05475       -24.39764        15.74372
     2008.05749       -33.20873        15.73586
     2008.06023       -33.34082        15.50256
     2008.06185       -16.57573        37.21243
     2008.49111       -34.50934        31.22531
     2008.49281       -35.37705        21.50279
     2008.49555       -31.65714        16.14478
     2008.49828       -31.53923        15.64673
     2008.50102       -31.17532        15.60741
     2008.50376       -19.63842        16.28109
     2008.50650       -27.90751        15.88003
     2008.50924       -24.17560        15.82236
     2008.51197       -30.73569        15.67557
     2008.51471       -30.62678        15.91935
     2008.51745       -17.56287        15.74896
     2008.52019       -22.61196        15.55761
     2008.52292       -27.18205        16.08711
     2008.52566       -20.98614        16.15265
     2008.52840       -22.92723        15.67294
     2008.53114       -23.68232        15.61003
     2008.53388       -17.96041        15.55236
     2008.53661       -24.97750        15.69391
     2008.53935       -23.54459        15.49994
     2008.54209       -27.31668        15.51829
     2008.54483       -20.04077        15.93770
     2008.54757       -21.34886        16.00847
     2008.55030       -18.22595        15.48159
     2008.55304       -19.10404        15.73323
     2008.55578       -19.88313        15.30071
     2008.55852       -20.39222        15.82498
     2008.56125       -19.76831        15.69391
     2008.56399       -17.37240        15.44489
     2008.56673       -20.96549        15.56285
     2008.56947       -16.34858        15.40557
     2008.57221       -16.74667        16.03993
     2008.57494       -15.00176        16.21294
     2008.57768       -14.30885        15.79877
     2008.58042       -18.94294        15.51042
     2008.58316       -17.26403        15.37149
     2008.58590       -10.43912        15.29547
     2008.58863       -17.35221        15.76731
     2008.59137       -19.89530        15.30858
     2008.59411       -18.05239        15.35838
     2008.59685       -13.31948        15.58120
     2008.59958       -16.56757        16.09236
     2008.60232       -18.09166        16.15265
     2008.60506        -8.71175        15.70702
     2008.60780       -14.52784        15.69916
     2008.61054       -18.78293        15.87217
     2008.61327       -13.96602        15.57858
     2008.61601       -15.60711        15.54974
     2008.61875       -14.31720        15.56023
     2008.62149       -11.63129        15.62576
     2008.62423        -9.83438        15.59693
     2008.62696       -11.57347        15.66246
     2008.62970        -7.99156        15.74634
     2008.63244        -7.75465        15.53926
     2008.63518       -14.18274        15.90624
     2008.63791        -5.07583        15.81450
     2008.64065       -10.32292        15.56547
     2008.64339       -15.29201        15.50518
     2008.64613        -9.33210        15.77518
     2008.64887       -16.40619        15.90100
     2008.65160       -10.30728        15.63100
     2008.65434       -12.02137        15.96129
     2008.65708       -13.65546        16.48294
     2008.65982       -17.91855        15.56809
     2008.66256        -9.75064        16.08449
     2008.66529       -23.15873        15.84071
     2008.66803       -22.72482        15.88265
     2008.67077       -20.08791        15.80139
     2008.67351       -16.70400        15.78042
     2008.67624       -14.44709        16.73458
     2008.67898       -12.08818        15.94294
     2008.68172       -17.51627        15.75683
     2008.68446       -10.63736        15.80401
     2008.68720       -11.90045        15.76207
     2008.68993        -9.16354        15.84857
     2008.69267        -8.30263        15.66770
     2008.69541       -10.17372        15.70440
     2008.69815        -8.40781        15.98488
     2008.70089        -5.54590        15.86430
     2008.70362        -8.01999        15.53926
     2008.70636        -7.75908        15.60741
     2008.70910       -12.45917        15.88789
     2008.71184        -9.45226        16.09760
     2008.71457       -11.58535        15.47897
     2008.71731       -14.95644        15.52091
     2008.72005        -4.64453        15.36887
     2008.72279       -13.70662        16.00323
     2008.72553       -17.29571        15.89051
     2008.72826       -15.68880        15.53139
     2008.73100       -12.73889        15.87479
     2008.73374        -7.19098        15.66508
     2008.73648       -13.97507        16.94953
     2008.73921        -8.95116        15.65722
     2008.74469       -12.35134        15.52877
     2008.74743        -8.93643        15.56547
     2008.75017        -7.71952        15.44489
     2008.75290        -3.88861        15.69391
     2008.75564        -3.92170        15.64411
     2008.75838       -12.21979        15.57858
     2008.76112        -9.39788        15.40295
     2008.76386        -7.29697        15.40295
     2008.76659       -19.54206        15.80925
     2008.76933       -21.29715        15.68867
     2008.77207       -25.27624        15.14344
     2008.77481       -29.55934        15.28499
     2008.77754       -23.22843        15.34528
     2008.78028       -20.81852        15.28237
     2008.78302       -14.40961        15.44227
     2008.78576       -17.18070        15.34003
     2008.78850       -18.93079        15.52877
     2008.79123       -17.81288        15.63625
     2008.79397       -19.84097        15.33217
     2008.79671       -16.23606        15.49731
     2008.79945       -18.01815        15.25615
     2008.80219       -11.81424        15.49731
     2008.80492       -18.49533        15.64673
     2008.80766       -18.84342        15.58120
     2008.81040       -11.64751        15.70440
     2008.81314       -12.06760        15.57333
     2008.81587       -11.68469        15.65722
     2008.81861       -13.63578        15.51829
     2008.82135       -16.97787        15.56285
     2008.82409       -18.98196        15.65197
     2008.82683       -15.32605        15.79877
     2008.82956        -8.29814        15.64411
     2008.83230       -22.32023        15.63887
     2008.83504       -14.13832        15.42130
     2008.83778        -7.95341        15.25091
     2008.84052       -11.40850        15.68081
     2008.84325        -0.84559        15.39508
     2008.84599        -6.93868        15.46848
     2008.84873        -6.49777        15.68867
     2008.85147       -21.90386        15.55761
     2008.85420       -22.90695        15.68867
     2008.85694        -2.72204        15.63362
     2008.85968        -6.64813        15.94294
     2008.86242        -2.11122        15.80139
     2008.86516       -12.40831        15.75945
     2008.86789        -3.65640        15.81712
     2008.87063       -18.26949        16.05828
     2008.87337       -27.96858        15.65459
     2008.87611       -15.80767        15.70178
     2008.87885       -19.89576        15.69391
     2008.88158       -20.41585        15.66770
     2008.88432       -28.91894        15.70702
     2008.88706       -27.51703        15.85644
     2008.88980       -26.00612        16.09760
     2008.89253       -28.97921        15.70178
     2008.89527       -28.85230        15.86168
     2008.89801       -18.49539        16.04517
     2008.90075       -22.35048        15.66508
     2008.90349       -23.15257        15.88527
     2008.90622       -18.21766        15.77518
     2008.90896       -15.11975        15.95343
     2008.91170       -21.01184        15.75158
     2008.91444       -15.57793        15.66246
     2008.91718       -11.73902        15.69916
     2008.91991       -11.99311        15.76207
     2008.92265       -17.79620        15.84071
     2008.92539       -18.71029        15.82760
     2008.92813       -16.98538        15.72013
     2008.93086       -20.78747        15.69129
     2008.93360        -1.55356        16.38595
     2008.93634        19.28235        15.94556
     2008.93908        -2.88674        15.86168
     2008.94182       -23.77083        15.93508
     2008.94455       -28.01692        16.01634
     2008.94729       -19.61301        15.67819
     2008.95003       -26.29010        15.44227
     2008.95277       -20.18519        15.29547
     2008.95551       -23.44228        15.57595
     2008.95824       -27.68137        15.55761
     2008.96098       -21.80246        15.76993
     2008.96372        -3.13855        15.52615
     2008.96646        -2.24764        15.82236
     2008.96919        -2.08073        15.55761
     2008.97193        -3.58482        15.50780
     2008.97467        -4.37891        15.55498
     2008.97741       -10.28000        15.50256
     2008.98015       -10.24809        15.50780
     2008.98288         0.80382        15.52091
     2008.98562        -5.92727        15.51829
     2008.98836         9.42564        15.61265
     2008.99110        29.26555        15.85906
     2008.99384        32.54946        15.83285
     2009.00752        29.41301        15.94556
     2009.01026        28.46492        16.10809
     2009.01848       -14.86335        17.44759
     2009.02121       -13.67144        20.31532
     2009.02395        11.00447        19.96144
     2009.02669       -41.23062        18.34146
     2009.02943        20.80129        21.59978
     2009.03216        28.63520        20.93658
     2009.03490       -45.56389        15.88789
     2009.03764       -29.42998        15.58644
     2009.04038       -31.39307        15.62052
     2009.04312       -38.54516        15.65722
     2009.04585       -35.66425        15.55498
     2009.04859       -32.70535        15.58906
     2009.05133       -29.40844        15.69916
     2009.05407       -35.32553        15.62576
     2009.05681       -26.90062        15.72013
     2009.05954       -27.26671        15.59168
     2009.06228       -33.13980        15.73323
     2009.06502       -31.86389        15.70702
     2009.06776       -28.09098        15.64149
     2009.07049       -29.57307        15.49994
     2009.07323       -20.16016        15.65197
     2009.07597         8.44475        15.70964
     2009.07871         8.81866        15.61527
     2009.08145       -27.16543        15.45799
     2009.08418        -1.14052        15.38984
     2009.08692       -26.13261        15.46062
     2009.08966       -28.66570        15.47372
     2009.09240       -25.88179        15.45799
     2009.09514       -23.57088        15.43440
     2009.09787       -20.88797        15.66246
     2009.10061       -19.88606        15.54974
     2009.10335       -24.39715        15.54450
     2009.10609       -20.54824        15.49994
     2009.10882       -27.33533        15.49469
     2009.11156       -28.52942        15.36625
     2009.11430       -25.25851        15.75945
     2009.11704       -31.16860        15.78566
     2009.11978       -20.60669        15.57595
     2009.12251       -13.02578        15.45537
     2009.12525       -13.14987        15.45013
     2009.12799        -6.91396        15.56023
     2009.13073        -6.96605        15.80401
     2009.13347       -13.94114        15.65722
     2009.13620       -23.82723        15.65459
     2009.13894       -27.88532        15.56285
     2009.14168       -24.80941        15.53401
     2009.14442       -20.89350        15.41081
     2009.14715       -20.09259        15.96129
     2009.14989       -13.98068        15.95867
     2009.15263        -8.94677        15.63362
     2009.15537        -5.23686        15.97702
     2009.15811       -13.84595        15.89838
     2009.16084       -29.04304        15.97440
     2009.16358       -29.85213        15.73848
     2009.16632       -20.34722        15.70440
     2009.16906       -12.01531        16.20507
     2009.17180       -11.99240        15.57858
     2009.17453        -6.76449        15.58644
     2009.17727         0.97542        16.11857
     2009.18001        -4.15967        15.60479
     2009.18275        16.94824        21.43725
     2009.18531        20.47472        20.67969
     2009.45927       -28.45186        15.86692
     2009.46201       -23.49395        15.81450
     2009.46475       -26.63604        16.06352
     2009.46748       -29.65513        16.03207
     2009.47022       -31.95722        15.86168
     2009.47296       -25.97331        16.08187
     2009.47570       -23.21440        15.84857
     2009.47843       -25.13349        15.95867
     2009.48117       -21.41458        15.90624
     2009.48391       -25.84267        15.97702
     2009.48665       -21.46176        16.25226
     2009.48939       -18.99985        16.13954
     2009.49212       -17.65294        15.97964
     2009.49486       -20.26803        15.92983
     2009.49760       -25.91112        16.00585
     2009.50034       -17.06821        15.81712
     2009.50308       -15.86130        15.86168
     2009.50581       -16.92239        15.80663
     2009.50855       -18.47548        15.92197
     2009.51129       -18.01757        15.90624
     2009.51403       -18.58666        15.76731
     2009.51676       -20.48075        15.84595
     2009.51950       -18.86484        15.93508
     2009.52224       -26.94793        15.99537
     2009.52498       -20.20802        15.80663
     2009.52772       -20.16811        15.83809
     2009.53045       -22.98620        15.88789
     2009.53319       -17.74529        15.75421
     2009.53593       -18.01638        15.83809
     2009.53867       -17.70847        15.77255
     2009.54141       -14.07656        15.67032
     2009.54414       -14.96765        15.58120
     2009.54688       -16.28274        15.71751
     2009.54962       -18.45283        15.54974
     2009.55236       -17.56692        16.03207
     2009.55509       -12.25101        15.68867
     2009.55783       -13.58110        15.70964
     2009.56057       -16.54119        16.13954
     2009.56331       -11.37028        16.30206
     2009.56605       -16.28737        16.16838
     2009.56878       -12.63146        15.94294
     2009.57152        -5.53255        15.94818
     2009.57426       -16.84564        15.80925
     2009.57700        -9.16473        16.29420
     2009.57974        -9.15882        15.77780
     2009.58247       -12.65091        15.64411
     2009.58521       -10.05700        15.91673
     2009.58795       -20.86709        15.64673
     2009.59069       -10.37218        15.70440
     2009.59342       -15.08828        16.05042
     2009.59616       -11.21037        15.64149
     2009.59890        -9.14346        15.82498
     2009.60164       -19.41355        16.01110
     2009.60438       -19.77964        15.67557
     2009.60711       -18.56873        15.62576
     2009.60985       -11.76182        15.71751
     2009.61259       -21.56991        16.00585
     2009.61533       -21.45300        15.72537
     2009.61807       -22.09109        16.00847
     2009.62080       -11.87618        15.78828
     2009.62354       -18.11027        15.73323
     2009.62628       -15.21936        15.84595
     2009.62902       -14.70245        15.95343
     2009.63175       -14.92254        15.87741
     2009.63449       -12.64963        15.87217
     2009.63723       -14.47372        15.93770
     2009.63997       -18.13981        16.00323
     2009.64271       -19.91290        15.83547
     2009.64544       -11.81199        16.00585
     2009.64818       -14.06808        16.08711
     2009.65092       -17.17317        15.97440
     2009.65366       -20.31026        15.91411
     2009.65639       -19.19935        15.64673
     2009.65913       -18.13244        15.66246
     2009.66187       -12.67153        15.67557
     2009.66461        -9.96462        15.62576
     2009.66735       -13.84671        15.91411
     2009.67008        -6.66080        15.72013
     2009.67282       -11.62089        15.96653
     2009.67556       -15.67098        15.64149
     2009.67830       -16.67607        16.21032
     2009.68104       -13.14716        16.60352
     2009.68377       -22.43725        15.77518
     2009.68651       -14.19934        15.59168
     2009.68925       -12.72843        15.77255
     2009.69199       -15.00652        15.71489
     2009.69472       -18.49561        16.12643
     2009.69746       -11.25870        15.59430
     2009.70020        -6.09379        15.89314
     2009.70294        -5.39788        15.62314
     2009.70568       -17.63697        15.86692
     2009.70841       -17.09506        16.12643
     2009.71115       -16.92715        15.91411
     2009.71389       -11.26124        16.29682
     2009.71663       -12.79533        16.01634
     2009.71937       -17.14342        15.71751
     2009.72210       -20.92551        15.84333
     2009.72484       -16.67860        16.17886
     2009.72758       -17.65469        16.10546
     2009.73032       -12.48878        15.79615
     2009.73305       -12.62987        15.96653
     2009.73579        -9.44896        16.11333
     2009.73853       -12.24605        15.86430
     2009.74127        -9.42414        16.32566
     2009.74401       -14.18223        16.29420
     2009.74674       -17.78332        15.89576
     2009.74948       -17.20341        16.19721
     2009.75222       -19.85450        15.93770
     2009.75496       -18.48959        15.92459
     2009.75770       -20.02168        15.82760
     2009.76043       -17.51377        15.76207
     2009.76317       -10.24486        15.86954
     2009.76591       -12.96495        16.07401
     2009.76865       -12.34104        16.27847
     2009.77138       -12.31813        16.05828
     2009.77412       -15.72222        16.00847
     2009.77686       -13.66031        16.04255
     2009.77960       -11.35440        16.07663
     2009.78234        -5.81849        16.13692
     2009.78507         7.88042        16.22605
     2009.78781         3.87433        16.58517
     2009.79055       -18.66276        16.82371
     2009.79329       -15.20085        16.61662
     2009.79603       -10.34994        16.55371
     2009.79876       -13.05403        16.18148
     2009.80150       -15.42912        16.37284
     2009.80424       -15.94121        16.26274
     2009.80698       -11.67830        16.27585
     2009.80971       -17.16839        16.51177
     2009.81245        -6.43748        16.34663
     2009.81519       -11.16857        16.46197
     2009.81793        -8.95066        16.61400
     2009.82067        -8.38975        16.11595
     2009.82340       -13.30384        16.25226
     2009.82614        -8.32793        16.46721
     2009.82888       -14.09602        16.37808
     2009.83162        -4.25011        16.41216
     2009.83436       -18.75420        16.32828
     2009.83709       -17.12929        16.34138
     2009.83983       -13.06238        16.33614
     2009.84257        -7.41647        16.41216
     2009.84531       -13.92756        16.78177
     2009.84804         0.70335        16.57993
     2009.85078        -4.61674        16.56944
     2009.85352         3.31017        16.41740
     2009.85626         4.22508        17.42924
     2009.85900         5.99299        16.97837
     2009.86173         7.27190        16.70313
     2009.86447        18.86581        17.52098
     2009.86721        21.01271        17.14089
     2009.86995         9.77062        16.76342
     2009.87269        -3.22347        16.77390
     2009.87542        25.75044        16.86827
     2009.88090        29.87526        17.92205
     2009.88364        18.98817        17.62846
     2009.88637         6.69908        16.72148
     2009.88911        21.58599        16.34138
     2009.89185        14.10590        16.63759
     2009.89459        22.16381        16.77652
     2009.90006        12.15263        16.56944
     2009.90280       -16.70246        16.41740
     2009.90554       -28.03555        17.22215
     2009.90828        -5.92464        16.64546
     2009.91102        -3.20073        17.02031
     2009.91375       -20.49382        16.58255
     2009.91649       -33.21591        16.53012
     2009.91923       -33.67700        16.22080
     2009.92197       -29.60609        16.14741
     2009.92470       -30.65918        16.14741
     2009.92744       -30.80927        16.13168
     2009.93018       -32.05336        16.06614
     2009.93292       -28.02145        16.28109
     2009.93566       -25.13554        16.06614
     2009.93839       -28.53063        16.70051
     2009.94113       -24.74372        16.13692
     2009.94387       -20.81281        16.50391
     2009.94661       -21.80490        16.58255
     2009.94935       -24.70099        16.12119
     2009.95208       -21.52108        16.15527
     2009.95482       -14.10617        16.22605
     2009.95756        -8.31726        16.34925
     2009.96030        -1.62835        16.45410
     2009.96303        -1.40344        16.44886
     2009.96577       -14.22253        16.83419
     2009.96851       -26.74362        16.69002
     2009.97125       -19.73171        17.20380
     2009.97399       -24.45180        16.40692
     2009.97672       -38.90989        15.81450
     2009.97946       -35.87798        16.00061
     2009.98220       -34.72407        16.01110
     2009.98494       -28.91216        15.86430
     2009.98767       -29.97625        16.05304
     2009.99041       -27.55934        15.86692
     2009.99315       -24.57943        15.86168
     2009.99589       -23.51052        15.93508
     2009.99863       -31.20361        16.23391
     2010.00410         8.91421        16.77915
     2010.00684        17.07312        17.07011
     2010.00958        14.69003        17.25099
     2010.01232        39.96394        18.34670
     2010.01505         4.06185        16.64284
     2010.01779       -34.09824        15.99537
     2010.02053       -30.77233        16.19459
     2010.02327       -44.29642        16.11071
     2010.02600       -35.08751        16.07925
     2010.02874       -33.64660        16.14741
     2010.03148       -24.70769        16.15003
     2010.03422       -14.74778        16.51177
     2010.03696       -16.10087        17.23526
     2010.03969       -10.60796        17.24574
     2010.04243        -9.88805        16.94691
     2010.04517        -1.30414        17.02031
     2010.04791         1.51977        17.13303
     2010.05065        -0.35532        16.89711
     2010.05338         5.98159        17.29555
     2010.05612        11.65250        17.89846
     2010.05886        10.97141        17.03079
     2010.06160        14.66932        17.42662
     2010.06433         9.92423        16.49080
     2010.06707        19.97414        17.40302
     2010.06981        12.40105        18.15272
     2010.07255        19.27096        17.88535
     2010.07529         5.62187        16.74507
     2010.07802         1.29478        16.62449
     2010.08076         3.94969        16.34925
     2010.08350        -3.93840        16.16313
     2010.08624       -24.14649        16.18935
     2010.08898       -29.41158        16.98099
     2010.09171       -25.93667        16.20245
     2010.09445       -20.02376        16.86303
     2010.09719        10.98415        16.70575
     2010.09993        -2.44794        16.34925
     2010.10266         7.55197        16.64284
     2010.10540         9.24588        16.89186
     2010.10814         5.69079        16.95215
     2010.11088         7.86670        16.74769
     2010.11362         1.80361        16.83419
     2010.11635         2.92852        16.89186
     2010.11909        -0.84057        16.46197
     2010.12183        -5.66866        16.71623
     2010.12457        -7.67875        16.35449
     2010.12731       -16.50284        16.89186
     2010.13004       -16.92593        17.01769
     2010.13278       -27.84602        16.72410
     2010.13552       -26.86311        16.40167
     2010.13826       -27.08620        16.78963
     2010.14099       -21.24530        16.01896
     2010.14373       -31.82239        16.66119
     2010.14647       -22.72648        16.60090
     2010.14921       -22.83157        16.18673
     2010.15195       -17.03966        16.15265
     2010.15468       -16.89875        16.16051
     2010.15742         4.41916        16.58517
     2010.16016         9.99707        16.35973
     2010.16290        -9.28202        16.30993
     2010.16564       -24.65811        16.13954
     2010.16837       -16.59220        16.19197
     2010.17111       -34.51529        16.07401
     2010.17385       -35.89138        16.20245
     2010.17659       -26.03747        16.07925
     2010.17932       -21.80056        16.02420
     2010.18206       -18.28565        15.99013
     2010.18480       -24.01374        15.81712
     2010.18754       -22.42583        15.78566
     2010.19028       -14.78892        16.09760
     2010.19301       -14.91601        16.68740
     2010.19575       -30.92410        16.11857
     2010.19849       -18.12119        16.11595
     2010.20123       -37.62428        16.11857
     2010.20397       -23.56837        16.41478
     2010.20670       -31.89146        16.28634
     2010.20944       -34.75155        16.08449
     2010.21218       -31.04864        16.13430
     2010.21492       -25.47373        16.46197
     2010.21765       -24.61182        16.22342
     2010.22039       -29.48491        16.26012
     2010.22313       -36.35200        16.23129
     2010.22587       -26.15209        16.31779
     2010.22861       -27.20718        16.22867
     2010.23134       -28.69527        16.40167
     2010.23408       -36.61136        16.72148
     2010.53624       -29.18876        29.88843
     2010.53798       -25.34236        15.98750
     2010.54072       -25.34145        15.79353
     2010.54346       -27.88554        15.87217
     2010.54620       -27.44663        15.90362
     2010.54893       -24.73172        15.57858
     2010.55167       -24.67481        15.77255
     2010.55441       -16.39390        15.85906
     2010.55715       -16.87899        15.89051
     2010.55989       -21.30708        15.78566
     2010.56262       -19.31717        15.73061
     2010.56536       -23.82126        15.55498
     2010.56810       -26.22035        15.47634
     2010.57084       -17.58944        15.68867
     2010.57357       -24.07353        16.10809
     2010.57631       -29.59962        16.07663
     2010.57905       -23.81571        15.85119
     2010.58179       -25.40280        15.80401
     2010.58453       -22.09989        15.97178
     2010.58726       -17.60998        15.96391
     2010.59000       -18.16007        16.30731
     2010.59274        -4.43816        16.16313
     2010.59548       -20.30225        15.52615
     2010.59822       -12.56934        15.68867
     2010.60095       -20.89843        15.59693
     2010.60369       -16.08252        15.70178
     2010.60643       -19.98261        15.53401
     2010.60917       -17.35670        15.65197
     2010.61190       -20.09479        15.60479
     2010.61464       -19.28988        15.55498
     2010.61738       -21.11597        15.45013
     2010.62012       -18.27806        15.54974
     2010.62286       -17.93415        15.45013
     2010.62559       -16.62224        15.53663
     2010.62833       -14.56033        16.03993
     2010.63107       -14.79842        16.02158
     2010.63381       -10.95451        15.49731
     2010.63655        -6.15060        15.52877
     2010.63928       -19.29269        15.23518
     2010.64202       -15.05378        15.41343
     2010.64476       -21.28587        15.33479
     2010.64750       -13.32396        15.30596
     2010.65023       -15.33505        15.52877
     2010.65297       -16.13014        15.84595
     2010.65571       -13.70423        15.02548
     2010.65845       -12.43432        14.85509
     2010.66119       -11.69841        15.17489
     2010.66392       -13.26350        15.24829
     2010.66666       -10.95259        15.12509
     2010.66940       -14.84068        15.07004
     2010.67214       -15.33477        15.10936
     2010.67488        -8.86386        15.31120
     2010.67761       -14.21695        15.15916
     2010.68035       -12.94304        15.15392
     2010.68309       -13.69813        15.06217
     2010.68583       -12.91423        14.91800
     2010.68856       -18.87332        15.00450
     2010.69130       -16.07041        15.00188
     2010.69404       -13.86650        15.43702
     2010.69678       -20.24259        15.02548
     2010.69952       -15.53568        15.05169
     2010.70225       -12.02677        15.07790
     2010.70499        -7.91086        14.96518
     2010.70773       -14.25295        15.05955
     2010.71047       -16.34404        15.15130
     2010.71321       -10.26313        15.15130
     2010.71594       -11.12122        15.50518
     2010.71868       -14.36531        15.00450
     2010.72142       -10.02040        15.32169
     2010.72416       -17.13549        15.51304
     2010.72689       -15.30458        15.40819
     2010.72963       -23.52867        15.08314
     2010.73237        -9.74476        15.36101
     2010.73511       -12.36585        15.38722
     2010.73785       -10.87494        15.60741
     2010.74058       -12.15603        15.65722
     2010.74332       -16.36012        15.10149
     2010.74606       -10.38021        15.29547
     2010.74880       -15.85130        15.39508
     2010.75154        -9.42639        15.11984
     2010.75427       -16.38048        15.47372
     2010.75701       -16.33757        15.23256
     2010.75975       -14.98366        14.89703
     2010.76249       -15.07175        15.04120
     2010.76522       -13.20984        15.01237
     2010.76796       -12.45293        15.34790
     2010.77070       -20.30102        15.19586
     2010.77344       -12.66311        15.58382
     2010.77618       -19.38220        14.89703
     2010.77891       -19.97129        15.10149
     2010.78165       -17.67738        15.05955
     2010.78439       -12.30847        15.38722
     2010.78713       -13.59856        15.63625
     2010.78987       -14.60965        15.04120
     2010.79260       -14.51174        15.32955
     2010.79534       -16.38283        15.03858
     2010.79808       -13.56792        15.08839
     2010.80082        -8.25201        15.17489
     2010.80355       -10.55710        15.24829
     2010.80629       -10.51919        15.15130
     2010.80903       -12.74928        15.24305
     2010.81177        -6.34837        15.33217
     2010.81451         3.07354        15.29285
     2010.81724         9.60945        15.26402
     2010.81998        15.27236        15.45013
     2010.82272         1.09927        15.30858
     2010.82546         8.75718        15.18800
     2010.82820        -1.65691        15.28761
     2010.83093        -0.86300        15.80401
     2010.83367       -13.34709        16.09498
     2010.83641       -24.76918        15.20373
     2010.83915       -22.74827        15.21683
     2010.84188       -14.95636        15.52091
     2010.84462       -16.40245        15.12771
     2010.84736       -12.44354        15.21945
     2010.85010       -16.85163        15.11198
     2010.85284       -11.90972        14.97829
     2010.85557       -14.80581        14.97567
     2010.85831       -16.09190        15.00450
     2010.86105       -28.29699        14.87082
     2010.86379       -30.18408        14.93635
     2010.86653       -29.77517        14.97829
     2010.86926       -22.08926        14.93897
     2010.87200       -21.60635        14.91800
     2010.87474        -4.83744        15.27712
     2010.87748        -7.34753        15.45537
     2010.88021        -0.12262        15.14344
     2010.88295         2.26729        15.42916
     2010.88569         9.04620        15.01761
     2010.88843        18.04811        15.34790
     2010.89117        19.81902        15.64935
     2010.89390        21.88593        15.08314
     2010.89664         6.92884        14.98616
     2010.89938         5.65775        15.04645
     2010.90212        11.23366        15.13033
     2010.90485         4.21057        14.95994
     2010.90759         7.11848        14.84198
     2010.91033         4.12239        14.87606
     2010.91307        -3.50470        14.93111
     2010.91581         2.21321        15.15392
     2010.91854         0.56812        15.00450
     2010.92128        -3.90097        15.03072
     2010.92402         6.28094        15.15130
     2010.92676        18.34385        15.69654
     2010.92950        12.99876        15.23518
     2010.93223        19.61567        15.14868
     2010.93497        35.46258        15.57858
     2010.93771        25.75649        15.84595
     2010.94045         3.74640        15.58120
     2010.94318        15.18531        15.25091
     2010.94592         3.90922        16.04517
     2010.94866         7.37813        15.44227
     2010.95140        10.68804        16.07139
     2010.95414        14.22895        15.44751
     2010.95687         7.87386        15.31644
     2010.95961         2.17476        15.62314
     2010.96235        16.46567        15.62838
     2010.96509        26.72558        15.62576
     2010.96783        33.38749        15.61265
     2010.97056        45.76540        15.79877
     2010.97330        57.39331        16.13430
     2010.97604        55.64322        15.48159
     2010.97878        57.41413        16.06614
     2010.98151        56.33204        15.97702
     2010.98425        58.92495        15.84595
     2010.98699        57.19186        15.77780
     2010.98973        44.26377        15.65459
     2010.99247        45.58068        15.67557
     2010.99520        48.34259        15.60217
     2010.99794        41.86150        15.36625
     2011.00342        59.01332        15.90886
     2011.00616        48.89623        16.05304
     2011.00889        10.21614        15.88789
     2011.01163        -3.09795        15.34003
     2011.01437         7.18296        15.80139
     2011.01711        13.03587        16.36760
     2011.01984         1.89378        15.60217
     2011.02258        -0.81431        15.45537
     2011.02532        -2.77040        15.58906
     2011.02806        -5.83349        16.03993
     2011.03080        -9.61058        15.48683
     2011.03353         5.70633        15.88265
     2011.03627         6.75424        16.07401
     2011.03901        -0.28585        15.51566
     2011.04175       -13.38294        15.44227
     2011.04449        28.94297        15.70702
     2011.04722        63.67888        17.06749
     2011.04996        61.29979        16.85254
     2011.05270        50.58270        16.32828
     2011.05817        46.18152        17.34273
     2011.06091        64.63543        17.13827
     2011.06365        12.78734        17.15400
     2011.06913        34.35416        18.76349
     2011.07186        36.50807        16.20245
     2011.07460        32.05098        16.34663
     2011.07734        39.53989        17.17235
     2011.08008        21.55780        16.59565
     2011.08282        28.28271        17.15138
     2011.08555        14.18762        16.45410
     2011.08829        20.98753        16.67167
     2011.09103         2.63744        15.78042
     2011.09377         3.70635        15.72013
     2011.09650        29.36926        16.02945
     2011.09924         2.82517        18.64029
     2011.10198        11.96608        17.80409
     2011.10472        28.84599        18.62719
     2011.10746        30.96590        18.63767
     2011.11019        23.39181        18.63767
     2011.11293        -5.46228        18.89194
     2011.12388       -21.46664        19.01252
     2011.12662       -10.29873        18.76349
     2011.12936        -2.31582        18.62456
     2011.13210       -10.79591        18.29428
     2011.13483       -11.59800        18.16583
     2011.13757       -22.23709        18.40437
     2011.14031       -21.37418        18.05311
     2011.14305        -1.05827        17.86176
     2011.14579        -2.05836        17.67040
     2011.14852       -11.73945        15.72013
     2011.15126        -8.33054        15.92197
     2011.15400        -5.91163        16.34663
     2011.15674         1.00628        16.24964
     2011.15948         2.86319        16.99410
     2011.16221         5.67310        17.03604
     2011.16495        -6.29499        16.53274
     2011.16769       -12.71708        16.22342
     2011.17043       -14.35217        16.34401
     2011.17316       -14.05926        16.79750
     2011.17590       -11.99535        16.62187
     2011.17864         4.45456        16.20507
     2011.18138         8.30147        16.41478
     2011.18412        -6.58562        15.64673
     2011.18685         5.06729        16.18935
     2011.18959         6.72120        16.04255
     2011.19233         6.75111        16.17886
     2011.19507        15.20602        16.65594
     2011.19780        14.12293        16.86041
     2011.20054         7.17484        16.51963
     2011.20328        17.29275        16.86303
     2011.20602        15.85366        16.45934
     2011.20876        10.73357        16.45672
     2011.21149         6.55548        16.57206
     2011.21423        12.27539        16.39119
     2011.21697        44.87330        18.36243
     2011.22245        39.79312        17.62059
     2011.22792        43.84794        18.08719
     2011.23066        45.49384        18.04001
     2011.23340        48.01075        17.99544
     2011.23613        47.00666        16.78701
     2011.23887        46.00857        17.38730
     2011.24161        39.70048        17.77263
     2011.24435        39.36039        17.61797
     2011.24709        48.06530        17.74642
     2011.25256        48.84212        17.11206
     2011.25530        52.88903        16.81322
     2011.25804        52.01894        17.76215
     2011.26050        52.34817        19.33232
     2011.54661       -23.76576        33.82043
     2011.54825       -26.29661        16.00061
     2011.55099       -24.41070        16.07139
     2011.55373       -28.36979        16.00323
     2011.55646       -27.56988        15.98488
     2011.55920       -26.25397        16.32041
     2011.56194       -24.65106        16.03731
     2011.56468       -24.49515        15.88789
     2011.56741       -22.19824        16.13954
     2011.57015       -27.40533        16.29420
     2011.57289       -28.23242        16.00585
     2011.57563       -22.34251        15.48683
     2011.57837       -27.87960        15.42392
     2011.58110       -30.52069        15.67557
     2011.58384       -25.04278        15.51566
     2011.58658       -24.37787        15.97178
     2011.58932       -29.37796        15.54712
     2011.59206       -24.39105        15.73586
     2011.59479       -20.85914        15.62838
     2011.59753       -21.20923        15.80401
     2011.60027       -22.85432        15.57071
     2011.60301       -24.33941        15.48421
     2011.60574       -27.05050        15.74110
     2011.60848       -19.74859        16.14478
     2011.61122       -16.64368        16.36235
     2011.61396       -17.12077        15.68867
     2011.61670       -20.55086        15.96391
     2011.61943       -25.55995        15.91149
     2011.62217       -19.97804        15.55761
     2011.62491       -27.68913        15.64411
     2011.62765       -19.43622        15.51829
     2011.63039       -19.51631        15.56023
     2011.63312       -14.21240        15.64411
     2011.63586       -22.52949        15.65722
     2011.63860       -18.00058        15.41081
     2011.64134       -15.09667        16.29682
     2011.64407       -16.52676        15.92459
     2011.64681       -16.59785        15.76207
     2011.64955       -19.33894        15.81974
     2011.65229       -21.52003        15.58906
     2011.65503       -20.14212        15.88527
     2011.65776       -17.28721        15.68605
     2011.66050       -12.27630        15.89051
     2011.66324       -15.14939        15.73586
     2011.66598       -18.66148        15.98488
     2011.66872       -12.61157        16.01372
     2011.67145       -13.73966        15.52615
     2011.67419       -14.47275        15.63100
     2011.67693        -8.88884        15.46324
     2011.67967       -15.44393        15.57858
     2011.68240       -17.07202        15.75683
     2011.68514       -18.64811        15.79615
     2011.68788       -13.09020        15.60217
     2011.69062        -9.89829        15.80139
     2011.69336       -13.31238        15.87741
     2011.69609       -16.27947        15.65459
     2011.69883       -16.44956        15.78304
     2011.70157       -17.72865        15.49469
     2011.70431       -15.80774        15.60217
     2011.70705       -15.88083        15.99275
     2011.70978       -16.87892        15.72013
     2011.71252       -13.20301        16.20245
     2011.71526       -20.66110        15.94294
     2011.71800       -15.11319        15.65722
     2011.72073       -12.77128        15.29809
     2011.72347        -5.30737        15.55498
     2011.72621        -9.62046        15.37149
     2011.72895       -13.31355        15.45013
     2011.73169       -13.05864        15.78304
     2011.73442       -16.33973        15.59168
     2011.73716       -12.39282        15.53401
     2011.73990       -17.41091        15.51042
     2011.74264       -11.62300        15.54712
     2011.74538       -16.73509        15.85906
     2011.74811       -12.10918        16.03207
     2011.75085        -6.13527        15.90100
     2011.75359       -13.60236        15.85119
     2011.75633       -15.50645        15.58120
     2011.75906         0.33446        15.40033
     2011.76180       -12.55063        15.54974
     2011.76454         0.33128        16.01110
     2011.76728       -21.21881        15.64673
     2011.77002       -20.74190        15.83022
     2011.77275        -5.42299        16.09236
     2011.77549       -15.25408        15.70702
     2011.77823        -0.94818        15.78304
     2011.78097        -7.44527        15.78566
     2011.78371       -13.84936        15.81974
     2011.78644       -18.57845        15.64673
     2011.78918       -17.94354        15.63887
     2011.79192       -20.40063        15.70440
     2011.79466       -18.97272        15.76469
     2011.79739       -14.96181        15.49994
     2011.80013       -13.32790        15.43440
     2011.80287       -15.15799        15.64411
     2011.80561       -18.13708        15.35838
     2011.80835       -15.77017        15.32169
     2011.81108       -19.77226        15.31382
     2011.81382       -20.99335        15.62576
     2011.81656       -17.89244        15.32693
     2011.81930       -13.38753        15.09625
     2011.82203       -18.93662        15.26664
     2011.82477       -18.75571        15.33479
     2011.82751       -18.85980        15.14868
     2011.83025        -6.15889        15.19062
     2011.83299       -15.41998        15.17751
     2011.83572       -21.16407        15.04907
     2011.83955       -28.71941        34.01178
     2011.84120       -13.47225        15.14606
     2011.84394        -7.77334        15.17751
     2011.84668       -14.13343        14.98616
     2011.84941       -17.63352        14.99140
     2011.85215       -21.69561        15.09887
     2011.85489       -16.78970        15.46062
     2011.85763       -16.48679        15.65197
     2011.86310        -9.62797        15.15654
     2011.86584        12.61094        15.30334
     2011.86858        29.37485        15.33741
     2011.87132        25.48776        15.38984
     2011.87405        15.31467        15.26926
     2011.87679        18.89358        16.50915
     2011.87953        10.88849        15.69654
     2011.88227        18.17140        15.50518
     2011.88501        19.09731        15.41343
     2011.88774         9.11922        15.54188
     2011.89048        18.20613        15.65722
     2011.90691        60.16959        17.17497
     2011.90965        45.10950        17.00720
     2011.91238        52.80341        17.26671
     2011.91512        39.30832        16.46983
     2011.91786        50.70723        17.27720
     2011.92060        27.92014        16.49080
     2011.92334         8.82805        16.56944
     2011.92607        -2.80104        17.04652
     2011.92881       -21.03313        15.71489
     2011.93155       -14.00322        15.69916
     2011.93429       -16.04631        15.56809
     2011.93702       -15.24540        15.82498
     2011.93976       -17.76649        15.63887
     2011.94250       -14.52458        15.60217
     2011.94524       -18.07067        15.63887
     2011.94798       -12.07076        15.70440
     2011.95071       -14.00985        15.39770
     2011.95345       -14.52594        15.52091
     2011.95619       -18.67503        15.41081
     2011.95893       -15.42512        15.04120
     2011.96167        -4.32621        15.14081
     2011.96440       -15.42630        15.34790
     2011.96714        -5.34539        15.27712
     2011.96988        22.60152        15.46848
     2011.97262         7.45243        15.32955
     2011.97535         4.70234        15.34790
     2011.97809       -15.09975        15.03072
     2011.98083       -13.21984        14.98878
     2011.98357       -24.30193        14.83936
     2011.98631       -11.20902        15.17227
     2011.98904        27.92589        15.86430
     2011.99178        44.42380        16.04517
     2011.99452        39.23771        15.95867
     2011.99726        48.98062        15.95605
     2012.00273        54.67744        16.35973
     2012.00547        54.96035        15.77518
     2012.00821        54.77126        16.42002
     2012.01368        58.91508        15.67032
     2012.01642        57.01299        15.41867
     2012.02190        52.98081        16.39381
     2012.02464        44.43772        16.60876
     2012.02737        25.40663        16.69264
     2012.03011        -5.24446        16.02420
     2012.03285       -23.88855        15.95081
     2012.03559       -15.85464        15.58644
     2012.03833        -6.58173        15.21421
     2012.04106        -6.34882        15.30596
     2012.04380        -8.57291        15.58906
     2012.04654        -5.85800        15.56547
     2012.04928        24.04890        15.59430
     2012.05749        36.58263        16.68740
     2012.06023        46.38954        16.84468
     2012.06297        47.23645        16.76080
     2012.06570        39.42636        16.98361
     2012.06844        53.06127        16.62711
     2012.07118        43.60018        15.72799
     2012.09034         9.96055        16.06090
     2012.09308       -26.15754        15.04382
     2012.09582       -24.95263        15.28499
     2012.09856       -24.66772        15.21683
     2012.10130       -22.09681        15.38722
     2012.10403       -18.98190        15.13033
     2012.10677       -25.59499        15.39246
     2012.10951       -14.74008        15.44751
     2012.11225        16.25583        15.61790
     2012.11498         9.33474        15.65722
     2012.11772         0.90565        15.70702
     2012.12046         8.32956        15.69391
     2012.12320        -6.53853        15.48683
     2012.12594       -22.89762        15.24567
     2012.12867       -13.88771        15.32169
     2012.13141         1.69520        15.94556
     2012.13415        23.34611        15.41081
     2012.13689        27.94402        15.76207
     2012.13963        40.98493        16.54847
     2012.14236        14.77184        16.38070
     2012.14510        11.25075        16.15003
     2012.14784         4.76066        15.68343
     2012.15058        17.40357        15.94032
     2012.15331        21.52948        16.05042
     2012.15605        21.39839        16.57468
     2012.15879        13.82730        16.62711
     2012.16153        19.64321        16.67429
     2012.16427        24.54712        16.26012
     2012.16700        43.83603        15.99275
     2012.16974        12.19994        16.84730
     2012.17248       -26.85115        17.19594
     2012.17522         2.92476        16.99672
     2012.17796         9.22867        16.41478
     2012.18069         5.55358        16.64546
     2012.18343        16.98049        16.98885
     2012.18617        10.39040        16.25750
     2012.18891         2.03531        16.61925
     2012.19164        -0.64578        16.05042
     2012.19438        -2.37187        15.93246
     2012.19712        -2.61996        16.33876
     2012.19986        -0.84605        16.28109
     2012.20260         4.31486        16.35973
     2012.20533        41.43977        16.54585
     2012.20807        31.32768        16.27585
     2012.21081        27.41559        15.72275
     2012.21355        34.90950        15.80139
     2012.21629        51.41741        16.10022
     2012.21902        36.79432        16.69264
     2012.22176        26.94023        16.05304
     2012.22450        34.09214        16.34401
     2012.22724        35.64505        16.13430
     2012.22997        34.22296        15.74634
     2012.23271        33.33687        15.96653
     2012.25462        10.25315        17.00720
     2012.25735        16.10806        16.60352
     2012.26009        11.38897        16.11333
     2012.26557        15.82179        15.93770
     2012.27104         8.14761        16.92594
     2012.27378        -7.25548        16.17100
     2012.27652       -17.07657        15.89576
     2012.27926       -26.41066        16.42265
     2012.28199       -17.46775        15.68867
     2012.28473       -27.56584        15.42916
     2012.28747       -37.44393        15.68867
     2012.29021       -33.73602        15.83285
     2012.29295       -42.70311        15.87479
     2012.29568       -34.01220        15.38460
     2012.29842       -42.66129        15.61790
     2012.30116       -42.10338        15.93246
     2012.30390       -44.63147        15.66770
     2012.30663       -34.67756        15.18800
     2012.30937       -28.10765        15.17751
     2012.31211       -24.74874        15.39770
     2012.31485       -27.15283        15.53926
     2012.31759       -27.32092        15.17227
     2012.32032       -22.16001        15.32955
     2012.32306       -36.14311        15.05955
     2012.32580       -33.72120        15.02548
     2012.32854       -17.54229        15.10412
     2012.33128        -3.29338        15.74110
     2012.33401        -0.39347        15.54712
     2012.33675        -5.19356        15.47897
     2012.33949         7.58335        15.75945
     2012.34223        11.84426        15.91411
     2012.34496        -0.86483        15.65722
     2012.34770       -40.62892        15.39770
     2012.35044       -33.00301        15.18538
     2012.35318       -38.00110        15.15392
     2012.35592       -38.51319        15.06480
     2012.35865       -38.58428        15.26926
     2012.36139       -36.88037        15.09887
     2012.36413       -36.14846        15.19586
     2012.36687       -35.58355        15.11460
     2012.36961       -27.16264        15.21421
     2012.37234       -27.22873        15.20897
     2012.37508       -31.05482        15.11198
     2012.37782       -26.18491        15.60479
     2012.38056       -34.49900        15.70964
     2012.38329       -35.62709        15.67032
     2012.38603       -31.31418        15.74110
     2012.38877       -34.67027        15.67294
     2012.39151       -19.98936        15.74634
     2012.39425       -17.07145        15.67819
     2012.39698       -31.81754        15.63100
     2012.39972       -33.03663        15.42916
     2012.40246       -29.09472        15.30071
     2012.40520       -28.33581        15.34528
     2012.40794       -31.75090        15.22208
     2012.41067       -33.23699        15.28499
     2012.41341       -35.68908        15.41343
     2012.41615       -29.84917        15.33217
     2012.41889       -25.00426        15.70178
     2012.42162       -31.45135        15.10412
     2012.42436       -30.85644        15.27450
     2012.42710       -31.21353        15.25353
     2012.42984       -21.14662        15.24042
     2012.43258       -37.81071        15.50518
     2012.43531       -30.63680        15.20897
     2012.43805       -34.66689        15.03596
     2012.44079       -29.24598        15.20373
     2012.44353       -38.82607        15.65197
     2012.44626       -28.30516        15.21945
     2012.44900       -27.99525        15.47897
     2012.45174       -26.34534        15.58906
     2012.45448       -33.02843        15.62314
     2012.45722       -27.09152        15.92983
     2012.45995       -24.38361        15.75683
     2012.46269       -15.43670        15.34790
     2012.46543       -32.42779        16.12643
     2012.46817       -33.69488        15.45013
     2012.47091       -30.18597        15.42654
     2012.47364       -26.81206        15.58382
     2012.47638       -33.36915        15.38460
     2012.47912       -26.45024        15.08314
     2012.48186       -25.97933        15.31382
     2012.48459       -29.22142        15.27450
     2012.48733       -37.19751        15.40819
     2012.49007       -23.87460        15.42130
     2012.49281       -28.50369        15.40295
     2012.49555       -27.49078        15.78828
     2012.49828       -32.00287        15.42654
     2012.50102       -24.72696        15.61790
     2012.50376       -26.19005        15.54974
     2012.50650       -33.11314        15.28761
     2012.50924       -28.56623        15.80401
     2012.51197       -28.48932        15.87479
     2012.51471       -31.62141        15.65984
     2012.51745       -27.55050        15.34790
     2012.52019       -25.79159        15.57333
     2012.52292       -29.64268        15.54974
     2012.52566       -22.86477        15.41081
     2012.52840       -23.86886        15.44227
     2012.53114       -26.42895        15.58120
     2012.53388       -20.65204        15.39770
     2012.53661       -18.61313        15.65459
     2012.53935       -25.46722        15.48421
     2012.54209       -20.65831        15.34790
     2012.54483       -22.07540        15.26664
     2012.54757       -21.19249        15.32693
     2012.55030       -16.13358        16.07401
     2012.55304       -20.79967        15.35314
     2012.55578       -26.47676        15.18800
     2012.55852       -26.16985        15.23518
     2012.56125       -23.76694        15.57333
     2012.56399       -21.01403        15.43702
     2012.56673       -19.38012        15.32955
     2012.56947       -15.13321        15.20635
     2012.57221       -22.10030        15.37935
     2012.57494       -22.88339        15.45537
     2012.57768       -19.52648        15.59168
     2012.58042       -18.92357        15.52877
     2012.58316       -26.06466        15.37149
     2012.58590       -19.12475        15.40033
     2012.58863       -19.91784        15.42392
     2012.59137       -17.07693        15.34003
     2012.59411       -17.40902        15.47634
     2012.59685       -15.88912        15.54712
     2012.59958       -16.90021        15.32169
     2012.60232       -18.54230        15.94818
     2012.60506       -18.06239        15.39246
     2012.60780       -15.08148        15.51829
     2012.61054       -14.83557        15.46324
     2012.61327       -14.34566        15.31120
     2012.61601       -10.83375        15.16965
     2012.61875       -20.87884        15.44751
     2012.62149       -10.84293        15.49207
     2012.62423       -12.02202        15.33217
     2012.62696       -18.36211        15.29547
     2012.63100         4.44408       213.43147
     2012.63244       -19.80229        15.49731
     2012.63518       -11.99938        15.22994
     2012.63791       -13.51747        15.37673
     2012.64065       -15.73456        15.25615
     2012.64339        -7.71165        15.27188
     2012.64613        -7.04274        15.16441
     2012.64887        -8.15183        15.19324
     2012.65160        -4.27792        15.33217
     2012.65434        -9.88501        15.42392
     2012.65708        -5.46710        15.85119
     2012.65982       -11.66719        15.72537
     2012.66256        -6.12528        15.16178
     2012.66529        -8.82337        15.19324
     2012.66803        -7.73146        15.28761
     2012.67077        -8.96055        15.27450
     2012.67351       -11.63264        15.24567
     2012.67624        -8.77473        15.24042
     2012.67898        -6.67882        15.05431
     2012.68172        -3.69491        15.03072
     2012.68446       -10.11500        15.15916
     2012.68720        -4.45409        15.25615
     2012.68993        -5.02018        15.42654
     2012.69267        -6.57127        15.55236
     2012.69541       -11.72636        15.34528
     2012.69815        -7.90445        15.39246
     2012.70089       -14.17954        15.58382
     2012.70362       -17.42363        15.21945
     2012.70636        -8.63272        15.20897
     2012.70910       -10.55481        15.07004
     2012.71184        -9.09690        15.04907
     2012.71457        -7.73299        15.11722
     2012.71731        -5.44708        15.10674
     2012.72005        -7.38217        15.05431
     2012.72279        -9.99626        15.02023
     2012.72553       -10.53735        15.06480
     2012.72826        -9.65544        15.23780
     2012.73100        -6.38453        15.53926
     2012.73374       -11.39162        15.45537
     2012.73648        -7.72771        15.30071
     2012.73921        -7.54680        15.29547
     2012.74195        -4.25789        15.32955
     2012.74469        -5.98298        15.21945
     2012.74743        -8.44707        15.29023
     2012.75017        -9.99716        15.49994
     2012.75290        -2.41625        15.28237
     2012.75564        -7.95534        15.24567
     2012.75838       -13.01943        15.25091
     2012.76112        -5.41752        15.22732
     2012.76386        -5.01961        15.13295
     2012.76659        -7.57070        15.28499
     2012.76933        -4.44079        15.29285
     2012.77207        -6.80588        15.29547
     2012.77481        -9.12797        15.12509
     2012.77754        -8.21406        15.12771
     2012.78028        -5.22815        15.32955
     2012.78302       -11.88124        15.20635
     2012.78576       -14.90733        15.40557
     2012.78850        -4.95342        15.53139
     2012.79123        -1.65051        15.49731
     2012.79397       -13.43260        15.26926
     2012.79671       -12.69369        15.29547
     2012.79945        -2.14778        15.49731
     2012.80219        -0.20687        15.30071
     2012.80492         2.35104        15.26926
     2012.80766         8.22595        15.27712
     2012.81040         8.79086        15.30596
     2012.81314        11.85477        15.35052
     2012.81587         3.99068        15.24829
     2012.81861        12.09859        15.58120
     2012.82135        12.24350        15.58644
     2012.82409       -14.75259        15.65197
     2012.82683       -15.12068        15.49731
     2012.82956       -20.32177        15.24567
     2012.83230       -18.54386        15.11198
     2012.83504       -15.97495        15.55236
     2012.83778       -16.51004        15.60741
     2012.84052       -17.74613        15.78042
     2012.84325       -19.35922        15.57595
     2012.84599       -17.38031        15.46324
     2012.84873       -17.54840        15.54712
     2012.85147       -17.38449        15.55761
     2012.85420       -25.96458        15.51566
     2012.85694       -25.30867        15.45537
     2012.85968       -19.56676        15.23256
     2012.86242       -16.07285        15.37673
     2012.86516       -16.79794        15.32169
     2012.86789       -21.75804        15.94556
     2012.87063       -20.53213        15.10412
     2012.87337       -26.67722        15.37673
     2012.87611       -18.50731        15.15130
     2012.87885       -11.76140        15.16703
     2012.88158         0.61151        15.27712
     2012.88432        14.59042        15.53401
     2012.88706        22.71733        16.64022
     2012.88980         7.67424        16.23391
     2012.89253        -0.21685        15.69654
     2012.89527         5.77306        16.29682
     2012.89801         6.65097        16.28109
     2012.90075        14.41988        15.86430
     2012.90349        12.10379        15.62314
     2012.90622        -2.62730        15.69654
     2012.90896       -18.07439        15.54974
     2012.91170       -10.34848        15.79090
     2012.91444       -14.19757        16.26537
     2012.91718       -16.56866        15.86954
     2012.91991       -12.46975        15.48159
     2012.92265       -17.24384        15.60741
     2012.92539        20.89707        16.17886
     2012.92813        35.61298        15.69916
     2012.93086        37.00689        16.06877
     2012.93360        32.76780        16.31517
     2012.93634        25.83371        15.49994
     2012.93908        29.54162        16.10546
     2012.94182        47.91953        16.33090
     2012.94455        37.10144        16.05304
     2012.94729        41.92035        16.13692
     2012.95003        42.77626        15.87217
     2012.95277        46.02817        15.74372
     2012.95551        48.75008        15.55498
     2012.95824        41.32899        15.68867
     2012.96098        53.28490        16.61400
     2012.96372        40.44781        16.31517
     2012.96646        23.00072        15.39246
     2012.96919        13.42763        15.78042
     2012.97193         9.67454        15.85644
     2012.97467        11.65545        15.69391
     2012.97741        17.89136        15.79615
     2012.98015        28.58627        15.71226
     2012.98288        28.23118        15.90886
     2012.98562        27.91709        15.89314
     2012.98836        29.09300        16.48818
     2012.99110        32.83991        16.61138
     2012.99384        32.91582        16.81060
     2012.99657        32.83673        16.55895
     2012.99931        19.96164        16.60090
     2013.00205         2.43855        16.46721
     2013.00479         5.62846        16.19983
     2013.00752        21.78037        16.01634
     2013.01026        22.97228        16.94691
     2013.01300        23.07419        16.47507
     2013.01574        20.04810        16.72934
     2013.01848        20.58601        16.81322
     2013.02121        14.74092        16.81847
     2013.02395        -6.06417        17.22215
     2013.02669         7.95274        16.85254
     2013.02943         0.30265        16.34663
     2013.03216         4.55656        16.67954
     2013.03490        21.64747        16.54585
     2013.03764        24.87338        16.60876
     2013.04585       -26.09489        15.70440
     2013.05407       -25.94916        15.24829
     2013.05681       -22.27025        15.29285
     2013.05954       -25.21634        15.27450
     2013.06228       -27.60343        15.73061
     2013.06502       -25.84752        15.76993
     2013.06776       -18.25161        15.59168
     2013.07049       -22.26470        15.51566
     2013.07323       -18.62179        15.26664
     2013.07597        -5.98088        15.20110
     2013.07871        -4.47697        15.30071
     2013.08145        -1.71506        15.33741
     2013.08418         0.19185        15.84857
     2013.08692         1.68076        15.59955
     2013.08966       -13.26533        15.18013
     2013.09240       -24.22042        15.23518
     2013.09514       -21.10351        15.21159
     2013.09787       -25.30360        16.00585
     2013.10061       -24.75969        16.18148
     2013.10335       -17.81278        15.41605
     2013.10609       -20.81587        15.19062
     2013.10882       -30.65196        15.22994
     2013.11156       -29.66605        15.51042
     2013.11430       -23.07814        15.29547
     2013.11704       -33.97723        15.81450
     2013.11978        -6.80032        16.09498
     2013.12251        -0.56341        15.70178
     2013.12525       -38.62250        15.37411
     2013.12799       -25.99059        15.36363
     2013.13073       -25.03468        15.45275
     2013.13347       -22.80777        15.20635
     2013.13620       -19.34186        15.39246
     2013.13894       -22.97595        15.29023
     2013.14168       -19.72505        15.41343
     2013.14442        -5.82914        15.78566
     2013.14715        -0.23623        15.52877
     2013.14989        -5.82632        15.24567
     2013.15263        -1.89241        15.30596
     2013.15537        -6.80250        15.55498
     2013.15811        -5.31159        15.63887
     2013.16084        -5.64068        15.59168
     2013.16358        -5.27077        15.84595
     2013.16632       -24.25986        15.36887
     2013.16906       -16.09395        15.31906
     2013.17180       -26.08304        15.51566
     2013.17453       -25.32313        15.31644
     2013.17727       -23.46722        15.69654
     2013.18001       -27.94231        15.58120
     2013.18275       -27.81640        15.03072
     2013.18548       -31.13149        15.02810
     2013.18822       -32.20658        15.26140
     2013.19096       -37.35867        15.37411
     2013.19370        17.76824        15.67032
     2013.19644        17.18715        15.70964
     2013.19917       -32.93494        15.40819
     2013.20191       -32.30903        15.49731
     2013.20465       -26.70512        15.59430
     2013.20739       -16.30321        15.52091
     2013.21013        -7.47530        15.13557
     2013.21286       -29.04939        15.13819
     2013.21560       -27.95748        16.00847
     2013.21834       -12.54757        15.95343
     2013.22108        -8.72166        16.32566
     2013.22381       -18.84775        15.96653
     2013.22655       -17.66884        16.68216
     2013.22929        -1.36093        16.32303
     2013.23203       -22.34302        16.18935
     2013.23477       -24.45911        16.12381
     2013.23750       -19.95620        17.30603
     2013.24024       -23.00429        17.22739
     2013.24298       -35.23838        16.10022
     2013.24572       -32.76247        15.79615
     2013.24846       -28.85456        15.50518
     2013.25119       -25.51365        15.51304
     2013.25393       -31.10674        15.76207
     2013.25667       -34.05983        16.01634
     2013.25941       -17.94992        15.84071
     2013.26214       -32.93901        15.69129
     2013.26488       -25.55310        15.86430
     2013.26762       -13.63519        15.68343
     2013.27036        -9.96528        16.53012
     2013.27310       -21.01037        16.01634
     2013.27583       -11.21146        15.89576
     2013.27857       -33.30955        15.96653
     2013.28131       -31.52564        15.53401
     2013.28405       -24.95673        15.48421
     2013.28679       -25.79782        15.45013
     2013.28952       -30.50491        15.28761
     2013.29226       -36.39200        15.31120
     2013.29500       -34.49909        15.46848
     2013.29774       -19.27318        15.49994
     2013.30047         2.42573        16.07663
     2013.30321         1.52464        15.60217
     2013.30595         6.87255        15.89838
     2013.30869       -25.63054        15.62576
     2013.31143       -41.88863        15.53401
     2013.31416       -32.68172        15.44227
     2013.31690       -33.07881        15.61790
     2013.31964       -40.30190        15.64935
     2013.32238       -35.18099        15.33741
     2013.32512        -7.02408        15.50518
     2013.32785         6.16883        15.89576
     2013.33059       -15.46926        15.52877
     2013.33333       -38.68535        15.41343
     2013.33607       -38.14044        15.47372
     2013.33880       -31.84153        15.41081
     2013.34154       -25.54862        15.50518
     2013.34428       -31.24171        15.46324
     2013.34702       -34.77380        15.50256
     2013.34976       -36.63889        15.40033
     2013.35249       -38.29598        15.42392
     2013.35523       -33.65407        15.71489
     2013.35797       -31.54316        15.48683
     2013.36071       -30.93325        15.50256
     2013.36344       -27.57134        15.52877
     2013.36618       -29.13043        15.40033
     2013.36892       -22.87252        15.38984
     2013.37166       -26.97461        15.34528
     2013.37440       -34.36570        15.36363
     2013.37713       -33.87879        15.34528
     2013.37987       -32.49488        15.47897
     2013.38261       -36.34297        15.24042
     2013.38535       -29.65206        15.38722
     2013.38809       -35.78815        15.23518
     2013.39082       -36.49024        15.30071
     2013.39356       -33.07833        15.22994
     2013.39621       -28.05964        16.11857
     2013.50956       -37.65656        32.79024
     2013.51129       -27.00621        15.10936
     2013.51403       -24.46730        15.22994
     2013.51676       -22.42239        15.29547
     2013.51950       -21.51248        15.27712
     2013.52224       -21.94857        15.19324
     2013.52498       -22.33566        15.73323
     2013.52772       -22.03475        15.24829
     2013.53045       -29.95684        15.26926
     2013.53319       -26.41793        15.18800
     2013.53593       -19.21502        15.14606
     2013.53867       -22.38911        15.42654
     2013.54141       -22.89820        15.54712
     2013.54414       -21.15629        15.16178
     2013.54688       -20.55938        15.32169
     2013.54962       -23.16147        15.12771
     2013.55236       -20.83556        15.28499
     2013.55509       -26.35365        15.26140
     2013.55783       -22.74874        15.26664
     2013.56057       -19.87883        15.42654
     2013.56331       -22.95792        15.49207
     2013.56605       -21.33201        15.16965
     2013.56878       -17.65210        15.21421
     2013.57152       -18.27819        15.27974
     2013.57426       -17.25428        15.06480
     2013.57700       -16.93237        15.16965
     2013.57974       -18.02146        15.23256
     2013.58377       -25.22129       115.58501
     2013.58521       -18.21764        15.21683
     2013.58795       -15.91873        15.10936
     2013.59069       -17.27682        15.20373
     2013.59342       -20.49991        15.26926
     2013.59616       -15.37000        15.33217
     2013.59890       -12.08009        15.30334
     2013.60164       -11.65818        15.27188
     2013.60438       -14.49227        15.14344
     2013.60711       -10.15236        15.56023
     2013.60985        -9.53345        15.44751
     2013.61259        -9.71154        15.28761
     2013.61533        -9.70663        15.60217
     2013.61807       -11.39672        15.65722
     2013.62080        -9.90681        15.30858
     2013.62354       -17.62190        15.35052
     2013.62628       -10.32799        15.57858
     2013.62902       -18.54508        15.21159
     2013.63175       -17.75917        15.08052
     2013.63449       -14.13326        15.46062
     2013.63723        -9.88035        15.02810
     2013.63997        -8.84344        15.19586
     2013.64271        -6.01353        15.12246
     2013.64544        -8.10062        15.23256
     2013.64818       -12.30271        15.04645
     2013.65092       -11.02380        15.07266
     2013.65366        -9.32089        15.16703
     2013.65639       -17.06098        15.26402
     2013.65913       -15.87607        15.61790
     2013.66187        -9.32816        15.28499
     2013.66461       -19.11425        15.07790
     2013.66735        -6.38434        15.19062
     2013.67008       -12.29043        15.16441
     2013.67282       -10.03452        15.77780
     2013.67556        -9.53461        15.59168
     2013.67830        -6.91170        15.19324
     2013.68104       -10.32579        15.07528
     2013.68377       -13.76188        15.13295
     2013.68651        -8.92698        15.17751
     2013.68925        -9.74007        15.24305
     2013.69199       -13.77516        15.07790
     2013.69472       -11.29525        15.20110
     2013.69746        -8.22834        15.13819
     2013.70020        -5.51743        15.13295
     2013.70294        -8.67552        15.23256
     2013.70568        -2.41161        15.30858
     2013.70841        -9.79170        15.24567
     2013.71115        -9.61579        15.20897
     2013.71389       -13.72488        15.27450
     2013.71663       -10.19397        15.20635
     2013.71937        -4.30206        15.18800
     2013.72210        -0.89515        15.21159
     2013.72484        -2.42524        15.33741
     2013.72758        -5.52233        15.35576
     2013.73032       -16.00342        15.19062
     2013.73305       -21.42551        15.12771
     2013.73579       -16.82460        15.08577
     2013.73853       -18.02969        15.15654
     2013.74127       -11.03078        15.26926
     2013.74401       -10.80087        15.48421
     2013.74674        -9.26496        15.33479
     2013.74948        -1.78005        15.14868
     2013.75222         0.10286        15.16703
     2013.75496        -2.75123        15.17489
     2013.75770       -30.03832        15.17489
     2013.76043       -22.86141        15.22732
     2013.76317       -17.35850        15.14606
     2013.76591        -9.01359        15.50256
     2013.76865         8.88932        15.34528
     2013.77138        16.45323        15.34528
     2013.77412         0.05114        15.38460
     2013.77686       -24.39695        15.29023
     2013.77960       -25.73604        15.21945
     2013.78234       -25.74313        15.25091
     2013.78507       -23.81522        15.29023
     2013.78781       -28.90331        15.37149
     2013.79055       -18.94040        15.37673
     2013.79329       -22.29549        15.20110
     2013.79603       -19.32858        15.13819
     2013.79876       -19.27367        15.05431
     2013.80150       -17.19076        15.49731
     2013.80424       -16.00185        15.56023
     2013.80698       -16.89894        15.17227
     2013.80971       -12.13403        15.06742
     2013.81245       -12.86912        15.03072
     2013.81519       -15.56121        15.27188
     2013.81793       -21.01530        15.30334
     2013.82067        -7.14439        15.42654
     2013.82340        -2.36248        15.31644
     2013.82614        -7.01357        15.78828
     2013.82888       -12.44766        15.30071
     2013.83162        -9.23175        15.32431
     2013.83436       -17.90584        16.01372
     2013.83709       -15.58293        15.58644
     2013.83983        -6.17602        15.11984
     2013.84257        -8.83711        15.16441
     2013.84531        -1.25120        15.46848
     2013.84804        -8.11129        15.26402
     2013.85078        -8.28038        15.30596
     2013.85352       -16.21647        15.17751
     2013.85626       -12.82456        15.07528
     2013.85900       -14.40065        15.20635
     2013.86173       -20.90374        15.26402
     2013.86447       -29.39183        15.28761
     2013.86721       -18.31192        15.20110
     2013.86995       -24.89801        14.99140
     2013.87269       -17.71910        15.03858
     2013.87542        -8.36019        15.27712
     2013.87816         1.29072        15.13033
     2013.88090        28.20263        15.86692
     2013.88364        28.06754        16.39905
     2013.88637        25.83645        15.49207
     2013.88911        25.59936        15.58120
     2013.89185         1.16427        15.54712
     2013.89459       -20.04282        15.39770
     2013.89733       -19.91191        15.38984
     2013.90006       -20.45700        15.68081
     2013.90280       -20.03909        15.44227
     2013.90554       -16.47618        15.31120
     2013.90828       -14.61527        15.34003
     2013.91102       -15.28936        15.36363
     2013.91375       -23.96445        15.30596
     2013.91649        19.71546        15.44751
     2013.93566        37.49583        15.57333
     2013.95482         9.62220        15.53139
     2013.95756       -16.90889        15.23256
     2013.96030       -17.40799        15.17751
     2013.96303       -14.92208        15.19324
     2013.96577       -20.05417        15.42392
     2013.96851        -9.99326        15.51566
     2013.98220       -24.38271        15.57595
     2013.98494       -24.07980        15.57333
     2013.98767       -25.59889        15.29023
     2013.99041       -25.36698        15.22208
     2013.99315       -27.93407        15.49207
     2013.99589       -22.46216        15.42654
     2013.99863       -19.30325        15.51829
     2014.00410       -24.74543        15.17489
     2014.00684       -13.30352        15.40557
     2014.00958       -17.25261        15.49731
     2014.01232       -23.76470        15.67819
     2014.01505       -25.80179        15.54712
     2014.01779       -19.29788        15.48945
     2014.02053       -20.18897        15.13819
     2014.02327        -4.76706        15.83022
     2014.02600        11.42385        16.07663
     2014.02874        11.75976        15.57333
     2014.03148        21.85467        15.38984
     2014.03422        37.77658        15.89576
     2014.03696        42.23549        16.39905
     2014.03969         7.95840        15.84857
     2014.04243       -10.98269        16.16575
     2014.04517       -20.83878        15.70702
     2014.04791       -17.28987        15.33217
     2014.05065       -19.62096        15.25877
     2014.05338       -20.54805        15.30334
     2014.05612       -23.03714        15.39770
     2014.05886       -17.30923        15.61527
     2014.06160       -16.52032        15.28237
     2014.06433       -20.48441        15.72013
     2014.06707       -19.47950        15.84333
     2014.06981       -23.67859        15.71226
     2014.07255       -16.48468        15.50518
     2014.07529       -18.86577        15.44227
     2014.07802        -4.15786        15.32169
     2014.08076         0.97605        15.81187
     2014.08350         9.15296        15.59430
     2014.08624         9.31587        15.95867
     2014.08898         8.48778        16.40167
     2014.09171         2.95069        16.38595
     2014.09445         2.04660        15.79615
     2014.09719         3.77351        16.05042
     2014.09993        11.66442        15.60741
     2014.10266         4.04933        15.83547
     2014.10540         6.59824        15.44489
     2014.10814         9.92215        15.69129
     2014.11088        12.48806        16.06877
     2014.11362        25.86997        16.02158
     2014.11909        50.40479        16.70313
     2014.15742         8.16353        16.63235
     2014.16016        -8.07056        16.60614
     2014.16290       -17.09965        15.92983
     2014.16564       -23.18674        15.97178
     2014.16837        -0.59183        16.77390
     2014.17111        10.15308        17.20904
     2014.17385        16.26499        17.03342
     2014.17659        19.96590        17.32438
     2014.17932        18.16181        17.65205
     2014.18206        14.86272        17.26671
     2014.19028        16.20845        16.51701
     2014.19301        -5.15064        16.48294
     2014.19575       -24.21673        16.24439
     2014.19849       -15.72882        16.49866
     2014.20123       -29.32391        16.35449
     2014.20397       -33.54100        16.27061
     2014.20670       -27.05109        16.03207
     2014.20944       -22.80218        16.02158
     2014.21218       -18.58127        16.17100
     2014.21492       -28.27236        16.37808
     2014.21765       -30.96145        15.79877
     2014.22039       -30.49654        15.85382
     2014.22313       -41.61163        15.80663
     2014.22587       -38.62072        15.67032
     2014.22861       -26.40581        15.73848
     2014.23134       -25.85290        15.64411
     2014.23408       -25.99300        15.79615
     2014.23682       -23.28109        15.89576
     2014.23956       -23.66018        16.40430
     2014.24230       -34.96627        15.68605
     2014.24503       -32.98936        15.85382
     2014.24777        -7.49845        16.75031
     2014.25051       -40.17354        15.84333
     2014.25325       -39.41563        15.78566
     2014.25598       -46.00972        16.16051
     2014.25872       -54.26081        15.79353
     2014.26146       -22.75290        16.43575
     2014.26420        -1.50699        16.08449
     2014.26694       -39.53108        15.74110
     2014.26967       -33.91517        15.82760
     2014.27241       -37.34026        16.18148
     2014.27515       -42.59835        16.10809
     2014.27789       -35.54644        15.72537
     2014.28062       -29.09853        15.81187
     2014.28336       -31.17162        15.77780
     2014.28610       -26.93871        16.35187
     2014.28884       -28.60780        16.71886
     2014.29158       -41.22389        15.60479
     2014.29431        -3.79698        15.77255
     2014.29705       -18.76607        15.75945
     2014.29979       -22.21016        15.78828
     2014.30253       -26.69625        15.79615
     2014.30527       -29.86734        15.58906
     2014.30800       -29.35443        15.69916
     2014.31074       -37.90952        15.85644
     2014.31348       -39.25061        15.70702
     2014.31622       -33.51570        15.47372
     2014.31895       -32.56779        15.51304
     2014.32169       -16.89788        15.83809
     2014.32443       -33.20997        16.04255
     2014.32717       -41.33306        15.95343
     2014.32991       -39.00615        15.58644
     2014.33264       -30.89924        15.69129
     2014.33538       -40.16333        15.51304
     2014.33812       -33.80542        16.24964
     2014.34086       -26.12451        15.81450
     2014.34360       -40.14360        15.54974
     2014.34633       -42.61869        15.53401
     2014.34907       -34.08678        15.97440
     2014.35181       -12.44287        16.00323
     2014.35455         1.99704        15.83022
     2014.35728       -50.30005        15.64935
     2014.36002       -46.58014        15.94294
     2014.36276       -43.27423        15.74372
     2014.36550       -36.44232        16.11333
     2014.36824       -43.17541        16.03731
     2014.37097       -40.28950        15.98488
     2014.37371       -29.62459        15.94818
     2014.37645       -36.39768        15.65459
     2014.37919       -36.67977        15.89314
     2014.38193       -43.38086        15.99799
     2014.38466       -29.63995        16.10022
     2014.38740       -35.80504        16.09498
     2014.39014       -25.43113        16.20770
     2014.39288       -28.43322        15.96391
     2014.39561       -28.22331        15.89051
     2014.39835       -34.98240        15.89051
     2014.40109       -31.79549        15.66246
     2014.40383       -31.77358        15.84595
     2014.40657       -33.39067        15.96915
     2014.40930       -33.07676        15.78566
     2014.41204       -35.10085        15.70702
     2014.41478       -35.59294        15.78566
     2014.41752       -30.87103        15.65984
     2014.42026       -36.12012        15.91673
     2014.42299       -36.79021        15.65197
     2014.42573       -33.15630        15.92721
     2014.42847       -28.96339        16.15265
     2014.43121       -34.55148        16.02682
     2014.43394       -29.89757        16.12643
     2014.43668       -25.70166        15.90624
     2014.43942       -25.79175        15.66246
     2014.44216       -30.05884        15.87479
     2014.44490       -26.68493        16.34925
     2014.44732       -26.10480        18.93126
