# ================= DQRFIT RESULTS ================
# INPUT FILE: series/PNHG.rad
# OUTPUT: LDETRENDED
# FILTER FUNCTION: f(t)
# f(t)=+line(t)+annual(t)+jumps(t)
# line(t)=+P 1+P 2*t
# annual(t)=+P 3*sin(2*pi*t+P 4)
# jumps(t)=+P 5*heav(t-2008.0700  )+P 6*heav(t-2008.3700  )+P 7*heav(t-2010.7460  )+P 8*heav(t-2012.7500  )
# heav(t)=(t<0?0:1)
# TOTAL OBSERVATIONS MTOT= 2145
# INITIAL TIME INTERVAL= 2022.7187 - 2007.8522 = 14.8665
# TOTAL OBSERVATIONS AFTER PREFILTER M= 2041
# TIME-SPAN= 2022.7187 - 2007.8522 = 14.8665
# OBSERVATIONS: USED M=  2041 REJECTED MTOT-M=   104 %USED=   95.1515
# N=  8 PARAMETERS
# MAXSIG= 175.00000
# MAXRES=  68.64026
# SCALE FACTOR FOR LENGTHS: SCL=  10.00000
# SCALE FACTOR FOR SIGMAS: SCLSIG=   1.00000
# CHI^2=  15467.762 DOF=  2033 CHI^2/DOF=   7.60834
# RMS=     16.745 SDEV=     16.749 MEAN=    0.05302
#  P #       PARAMETER +-    SIGMA %error PARAMETER NAME
# P 1 =     18784.44469 +-  446.380   2.38 YZERO                              
# P 2 =        -9.37669 +-    0.222   2.37 SLOPE                              
# P 3 =         4.89401 +-    0.758  15.49 ANNUAL AMPLITUDE                   
# P 4 =         2.58125 +-    0.205   7.93 ANNUAL PHASE                       
# P 5 =        66.92588 +-    3.649   5.45 OFFSET 2008.0700                   
# P 6 =       -44.78932 +-    3.222   7.19 OFFSET 2008.3700                   
# P 7 =        14.44701 +-    1.308   9.06 OFFSET 2010.7460                   
# P 8 =        77.51296 +-    1.960   2.53 OFFSET 2012.7500                   
#       T            LDETRENDED       SIG_OBS
     2007.85215        -4.85220        15.86311
     2007.85489        -1.06052        16.26307
     2007.85763       -17.91485        15.74451
     2007.86036         3.01782        15.21491
     2007.86310         6.70849        15.74726
     2007.86584         0.22016        15.33352
     2007.86858         6.11383        15.53763
     2007.87132         3.18051        15.65900
     2007.87405         4.77518        15.53211
     2007.87679         2.03585        15.20387
     2007.87953         8.89052        15.41075
     2007.88227         7.82519        15.18457
     2007.88501        13.24987        15.18181
     2007.88774         0.26054        15.26732
     2007.89048         5.37121        15.12388
     2007.89322         8.26388        15.52936
     2007.89596         4.70355        15.66451
     2007.89869         8.38823        15.36386
     2007.90143         2.39190        15.40523
     2007.90417         0.90257        15.28111
     2007.90691         5.21224        15.19560
     2007.90965         7.03491        15.34179
     2007.91238        10.05159        15.36662
     2007.91512        12.09626        15.44109
     2007.91786         6.47593        15.46867
     2007.92060         0.80360        15.92655
     2007.92334        -2.33673        15.88794
     2007.92607         4.91695        15.65072
     2007.92881         9.24762        15.79691
     2007.93155        11.68229        15.45764
     2007.93429         7.96096        15.40523
     2007.93702         1.62763        15.73899
     2007.93976         4.97431        15.79416
     2007.94250         7.00398        15.73071
     2007.94524         3.62765        16.11136
     2007.94798         3.38832        15.62866
     2007.95071         9.04499        15.44661
     2007.95345         3.20267        15.68658
     2007.95619        -1.21766        16.10309
     2007.95893        10.09901        16.00930
     2007.96167         2.57068        16.15825
     2007.96440        12.68435        15.83553
     2007.96714         8.42103        15.63693
     2007.96988         3.36870        15.94586
     2007.97262        -8.18163        16.11964
     2007.97535       -13.93496        15.94862
     2007.97809        -5.63229        15.83553
     2007.98083         3.12739        15.94035
     2007.98357         8.87406        15.70589
     2007.98631         7.35173        16.91679
     2007.98904        -3.19760        16.16653
     2007.99178        -8.66893        16.12240
     2007.99452        -1.21525        18.02288
     2007.99726        31.12042        19.67236
     2008.00000       -15.45691        16.92231
     2008.00273       -12.26824        15.77761
     2008.00547        -1.81557        15.44936
     2008.00821         7.73511        15.46316
     2008.01095         9.46178        15.48798
     2008.01368        12.63445        15.28111
     2008.01642         6.86012        16.08930
     2008.04767        10.53212        34.99484
     2008.06297         8.83455        15.65348
     2008.06570         7.11122        15.46591
     2008.07118        11.32656        15.58728
     2008.07392        11.99423        15.60935
     2008.07666        16.35391        18.11942
     2008.07939        22.49058        19.39377
     2008.08213        38.15625        17.07953
     2008.08487        47.92492        16.79543
     2008.08761        52.61759        18.22148
     2008.09034        37.77827        18.86417
     2008.09308        39.91794        18.56903
     2008.09582        45.23161        18.67936
     2008.09856        26.96228        17.87117
     2008.11875        97.18561        34.32181
     2008.12046        62.55366        20.93291
     2008.12320        70.73233        20.43090
     2008.12594        76.69400        19.67787
     2008.12867        77.80967        19.31377
     2008.13141        82.21334        19.00484
     2008.13415        74.68402        19.11242
     2008.13689        77.69169        18.99933
     2008.13963        83.37336        18.64626
     2008.14236        78.46503        18.58834
     2008.14510        76.78370        18.58282
     2008.14784        76.57638        18.46145
     2008.15058        73.75305        18.51662
     2008.15331        62.65472        18.21596
     2008.15605        68.14539        18.27389
     2008.15879        75.04406        18.09184
     2008.16153        59.06674        18.37594
     2008.16427        66.77741        18.95243
     2008.16700        62.67508        21.98383
     2008.16974        62.21475        22.41137
     2008.17522       107.30510        22.19898
     2008.17796       103.54677        21.73282
     2008.18069       106.46444        21.60594
     2008.18343       112.04311        20.96325
     2008.18617       103.67278        21.30253
     2008.18891        12.88046        24.68699
     2008.19164        23.13913        23.16439
     2008.19438        84.60480        20.71224
     2008.19712       105.95447        20.49710
     2008.19986        99.52014        19.51789
     2008.20260       111.50482        19.10138
     2008.20807       112.73516        20.25988
     2008.21081       114.64483        21.75489
     2008.38329       -24.15983        21.42665
     2008.38603        -1.47616        19.74683
     2008.38877        12.61151        20.01439
     2008.39151         1.89918        20.19644
     2008.39425        -4.46315        20.03094
     2008.39698        13.95053        18.69591
     2008.39972        20.30020        18.05874
     2008.40246         9.70187        17.54569
     2008.40520         6.82754        16.86438
     2008.40794        -3.75079        16.73198
     2008.41067        -0.44111        15.46040
     2008.41341         1.36256        15.55694
     2008.41615         2.51523        15.41902
     2008.41889         4.28390        15.35282
     2008.42162         0.92857        15.70865
     2008.42436        -8.75975        15.68658
     2008.42710        -0.88608        15.43557
     2008.42984        -4.76041        15.65624
     2008.43258         8.26526        16.02861
     2008.43531         8.86493        15.66451
     2008.43805       -11.80539        15.96517
     2008.44079         0.72028        15.92104
     2008.44353         6.58995        15.46316
     2008.44626         5.00462        15.46867
     2008.44900         1.26929        15.36937
     2008.45174        -3.26203        15.66451
     2008.45448        -0.74836        15.61486
     2008.45722        -3.86069        15.02734
     2008.45995        -7.86702        15.13767
     2008.46269        -4.55635        15.25628
     2008.46543        -6.80667        15.30593
     2008.46817        -3.18100        15.09906
     2008.47091        -8.62633        15.16250
     2008.47364         2.33534        14.92804
     2008.47638         1.16001        14.99148
     2008.47912        -3.18731        14.99976
     2008.48186        10.33736        14.99700
     2008.48459         2.04103        15.28938
     2008.48733        -0.37630        14.89770
     2008.49007        -4.50063        14.88115
     2008.49281        -0.10695        14.97493
     2008.49555         2.60872        15.57073
     2008.49828         7.11539        15.64796
     2008.50102         5.50706        15.25077
     2008.50376         3.89173        15.62314
     2008.50650         7.44641        15.31972
     2008.50924        13.92508        15.11561
     2008.51197         5.52075        15.01631
     2008.51471         4.18142        14.92804
     2008.51745         6.30109        14.97769
     2008.52019         2.08777        14.95011
     2008.52292        -0.47456        15.46316
     2008.52566         6.08311        15.63969
     2008.52840        10.64978        14.94459
     2008.53114         5.23645        15.24801
     2008.53388        -3.96987        15.20663
     2008.53661         2.65980        14.89770
     2008.53935        14.72847        15.00803
     2008.54209        10.76314        14.88391
     2008.54483        11.82981        15.27559
     2008.54757        12.13949        15.10733
     2008.55030        12.18616        14.88667
     2008.55304        10.91783        14.92804
     2008.55578         9.91150        14.88391
     2008.55852        13.38017        15.01079
     2008.56125        10.61885        14.85633
     2008.56399        10.72052        14.91149
     2008.56673        11.58419        14.91149
     2008.56947         6.33986        14.89494
     2008.57221        16.85753        15.27007
     2008.57494         4.88721        15.57625
     2008.57768         2.49988        15.44936
     2008.58042         8.76655        15.07699
     2008.58316        -4.58678        15.82174
     2008.58590        20.49089        14.84529
     2008.58863        10.59056        15.32524
     2008.59137        11.50924        14.79288
     2008.59411        13.51091        14.80116
     2008.59685        14.20958        15.07423
     2008.59958         6.65325        16.15274
     2008.60232         4.55092        15.98724
     2008.60506         7.50660        15.12664
     2008.60780         3.36427        15.22318
     2008.61054         9.15494        15.04113
     2008.61327        17.35861        15.15698
     2008.61601        21.97628        15.15422
     2008.61875        11.87196        15.04941
     2008.62149        13.38963        15.09078
     2008.62423        13.42930        15.14595
     2008.62696        15.71997        15.14319
     2008.62970        20.33264        15.45764
     2008.63244         8.99832        15.16250
     2008.63518         1.50399        15.81898
     2008.63791        -9.76634        15.40247
     2008.64065        19.42633        15.09078
     2008.64339        15.63900        15.15974
     2008.64613        14.58668        15.52660
     2008.64887         7.54835        15.16526
     2008.65160        14.70402        15.06320
     2008.65434        -0.57531        15.44385
     2008.65708        18.11036        15.84105
     2009.59713        21.93490        28.53485
     2009.59890        31.11052        15.39971
     2009.60164        24.62020        15.48522
     2009.60438        22.08087        15.35282
     2009.60711        10.51454        15.49350
     2009.60985         7.75421        16.01758
     2009.61259        12.05088        15.99000
     2009.61533        17.20056        15.41626
     2009.61807        23.46823        15.43281
     2009.62080        24.53090        15.46040
     2009.62354        19.32457        15.39696
     2009.62628        22.28324        15.45764
     2009.62902        25.14392        15.48522
     2009.63175        23.85759        15.31421
     2009.63449        18.32626        15.54039
     2009.63723        17.59693        16.07275
     2009.63997        18.71360        15.63969
     2009.64271        17.78928        15.59004
     2009.64544        26.19695        15.45764
     2009.64818        17.72762        15.70865
     2009.65092        15.38929        15.64521
     2009.65366        14.07696        15.99000
     2009.65639        17.22364        15.27559
     2009.65913        14.99731        15.42730
     2009.66187        25.32598        15.24249
     2009.66461        24.36165        15.34455
     2009.66735        26.10632        15.53763
     2009.67008        17.84700        15.77761
     2009.67282        17.87467        16.07826
     2009.67556        12.26334        15.79967
     2009.67830        23.57201        15.80519
     2009.68104         5.01968        16.37064
     2009.68377        -0.43464        16.24100
     2009.68651        -7.46097        15.47419
     2009.68925        20.63170        15.83829
     2009.69199        23.77737        15.69761
     2009.69472        24.71204        15.38316
     2009.69746        14.72972        15.30869
     2009.70020        25.44539        15.60383
     2009.70294        29.63006        15.44661
     2009.70568        21.89273        15.41351
     2009.70841        12.63340        15.70865
     2009.71115        19.03708        15.60659
     2009.71389        21.17075        16.02310
     2009.71663        17.78642        15.74175
     2009.71937        22.27009        15.43281
     2009.72210        14.66076        15.33352
     2009.72470        20.10914        16.17205
     2009.72758        12.13611        15.44109
     2009.73032        19.80278        15.25904
     2009.73305        27.99845        15.51005
     2009.73579        27.01312        15.33627
     2009.73853        24.13880        15.06320
     2009.74127        19.63447        15.44936
     2009.74401        25.56914        16.17480
     2009.74674        24.62081        15.22042
     2009.74948        24.51948        15.18181
     2009.75222        24.78416        15.73899
     2009.75496        25.86783        15.16526
     2009.75770        26.49250        15.25352
     2009.76043        28.10117        15.25077
     2009.76317        27.98684        15.23697
     2009.76591        25.06752        15.25628
     2009.76865        25.90519        15.49626
     2009.77138        23.99186        15.28387
     2009.77412        27.99053        15.34731
     2009.77686        27.66320        15.35282
     2009.77960        26.30488        15.26456
     2009.78234        30.20655        15.35007
     2009.78507        26.16822        15.89897
     2009.78781        20.13289        16.10860
     2009.79055        -2.67844        16.49753
     2009.79329        10.25323        16.22445
     2009.79603        18.24191        15.95965
     2009.79876        26.73358        15.50177
     2009.80150        22.45825        15.58176
     2009.80424        20.57492        15.78312
     2009.80698        25.01459        15.78312
     2009.80971         8.52327        16.19687
     2009.81245        27.95294        15.85208
     2009.81519        30.52161        15.66176
     2009.81793        -2.18272        15.87966
     2009.82067        22.12495        15.42730
     2009.82340        28.68663        15.34455
     2009.82614        23.56830        15.65072
     2009.82888        16.37297        16.50029
     2009.83162         8.76664        16.41754
     2009.83436        29.70031        15.63969
     2009.83709        -7.18701        16.17756
     2009.83983        19.28566        15.45212
     2009.84257        24.33933        15.43833
     2009.84531        21.80800        15.86587
     2009.84804        22.91967        15.75830
     2009.85078        16.85335        15.67003
     2009.85352        15.99802        15.67831
     2009.85626        17.78869        15.70865
     2009.85900         9.00536        15.89621
     2009.86173        16.38103        15.59831
     2009.86447        29.63271        16.46719
     2009.86721        18.58538        16.15825
     2009.86995        22.30805        15.61211
     2009.87269        22.29672        15.65624
     2009.87542         4.84739        16.12515
     2009.87816        23.53707        16.10033
     2009.88090        17.43474        16.00655
     2009.88364        13.77341        15.72796
     2009.88637        19.00308        15.80795
     2009.88911        20.44075        15.41626
     2009.89185        11.54043        15.65624
     2009.89459        15.74210        15.93207
     2009.89733        -3.84523        15.85484
     2009.90006         7.08044        15.86035
     2009.90280         7.84711        15.91000
     2009.90554        22.66079        15.45488
     2009.90828        21.49046        15.57073
     2009.91102        13.44613        15.65900
     2009.91375        -3.32920        15.84380
     2009.91649        14.13147        15.62038
     2009.91923        12.09315        15.50177
     2009.92197        11.72782        15.49901
     2009.92470         6.68349        15.76657
     2009.92744        16.41716        15.73623
     2009.93018        17.48983        15.65900
     2009.93292        16.41951        15.80243
     2009.93566        20.85618        15.47695
     2009.93839        16.41185        16.05344
     2009.94113        16.09752        15.89621
     2009.94387        19.91819        16.11412
     2009.94661        34.16387        15.83277
     2009.94935        16.49554        15.68106
     2009.95208         8.93521        15.37489
     2009.95482        -4.88712        16.06723
     2009.95756         1.21755        15.53763
     2009.96030         7.01823        15.72796
     2009.97125        13.49491        16.19135
     2009.97399        15.06259        16.48374
     2009.97672        11.93626        18.21872
     2009.97946        16.84593        19.45721
     2009.98220        26.09160        18.38422
     2009.98494        30.02727        17.66706
     2009.98767        17.99095        17.49880
     2009.99041        23.56862        16.99954
     2009.99315        26.40129        16.76233
     2009.99589        27.02196        16.65199
     2009.99863        17.85563        16.77060
     2010.00410        20.36998        18.90003
     2010.00684        22.94265        18.24906
     2010.00958         3.36532        18.03115
     2010.01232        17.82499        18.94416
     2010.01505        23.81967        17.64775
     2010.01779        24.55534        17.42157
     2010.02053        42.97201        18.70419
     2010.02327        23.55868        18.50559
     2010.02600        37.13435        18.09735
     2010.02874        17.76402        18.06425
     2010.03148        44.88670        17.43260
     2010.03422        40.73037        18.70970
     2010.03696        40.36304        20.38676
     2010.03969        24.37071        18.76763
     2010.04243        31.88638        17.15677
     2010.04517        37.11506        16.51408
     2010.04791        43.49173        17.29468
     2010.05065        44.68040        16.74302
     2010.05303        49.47773        20.94394
     2010.09720        38.11696        16.51408
     2010.09993        30.32750        16.01758
     2010.10266        38.37117        16.06447
     2010.10540        34.84184        16.16101
     2010.10814        35.34351        15.98172
     2010.11088        33.50418        16.32375
     2010.11362        35.90486        16.30996
     2010.11635        50.29153        18.16355
     2010.11909        11.46020        17.32502
     2010.12183        23.08187        17.63120
     2010.12457        40.11854        18.13873
     2010.12731        34.76722        18.21596
     2010.13004        33.10989        17.99254
     2010.13278        35.33156        17.77463
     2010.13552        41.33223        17.32227
     2010.13826        45.10190        17.23952
     2010.14099        44.45758        17.63120
     2010.14373        45.65425        18.03391
     2010.14647        39.17592        19.35791
     2010.14921        39.18159        19.10690
     2010.15195        26.43426        18.84762
     2010.15468        41.80194        18.79245
     2010.15742        72.08761        24.28703
     2010.16016        81.42728        23.95327
     2010.16290        64.56195        25.59448
     2010.16564        61.48462        25.29933
     2010.16837        73.42630        26.19579
     2010.42026        55.87212        43.56495
     2010.42299        79.67479        32.23927
     2010.42575        38.34764        36.50088
     2010.42847        59.74413        22.21553
     2010.43121        18.15281        17.75532
     2010.43394        36.74948        15.68658
     2010.43668        26.97615        15.75830
     2010.43942        43.22482        15.31972
     2010.44216        48.70149        15.63417
     2010.44490        39.45517        15.63969
     2010.44763        26.02884        15.30593
     2010.45037        27.85251        15.06872
     2010.45311        26.97918        15.04665
     2010.45585        33.04885        15.09630
     2010.45859        27.12053        15.48522
     2010.46132        25.75520        15.34455
     2010.46406        39.93287        15.24249
     2010.46680        34.43154        15.25904
     2010.46954        34.63621        15.30317
     2010.47227        26.29289        15.21767
     2010.47501        25.54056        15.62038
     2010.47775        36.75823        15.93483
     2010.48049        38.75490        15.92380
     2010.48323        33.22457        15.42730
     2010.48596        36.29125        15.64245
     2010.48870        26.47392        15.40247
     2010.49144        27.52159        15.28387
     2010.49418        24.31626        15.19008
     2010.49692        32.02793        15.22870
     2010.49965        36.97661        15.45764
     2010.50239        40.43728        15.32800
     2010.50513        30.71895        15.25904
     2010.50787        38.48462        15.31972
     2010.51060        38.50429        15.24525
     2010.51334        41.80996        15.38316
     2010.51608        36.63564        15.14319
     2010.51882        38.66331        15.36937
     2010.52156        45.54398        15.58728
     2010.52429        47.35965        15.18732
     2010.52703        38.42732        15.40247
     2010.52977        39.85300        15.23146
     2010.53251        35.56167        15.21767
     2010.53525        53.54634        15.10457
     2010.53798        26.46001        15.45212
     2010.54072        35.22568        15.17905
     2010.54346        53.94236        15.25628
     2010.54620        38.77203        15.16802
     2010.54893        35.26770        15.23697
     2010.55167        39.28137        15.23146
     2010.55441        42.98104        15.34179
     2010.55715        37.71072        15.26456
     2010.55989        41.40039        15.17077
     2010.56262        46.93206        15.25077
     2010.56536        41.78873        15.12664
     2010.56810        44.85240        15.11009
     2010.57084        42.92008        15.70865
     2010.57357        46.20675        15.65624
     2010.57631        41.38242        15.73071
     2010.57905        45.80309        15.39144
     2010.58179        39.95576        15.07699
     2010.58453        41.56044        15.13767
     2010.58726        38.52711        15.50177
     2010.59000        45.46678        15.68658
     2010.59274        43.54145        15.43281
     2010.59548        48.24612        15.33076
     2010.59822        52.63480        15.17629
     2010.60095        47.44747        15.04113
     2010.60369        45.81914        15.18732
     2010.60643        43.64081        15.33903
     2010.60917        45.58848        15.07423
     2010.61190        46.57216        14.97217
     2010.61464        48.25683        15.33076
     2010.61738        45.96450        15.14871
     2010.62012        44.29117        15.04941
     2010.62286        48.94284        15.41075
     2010.62559        47.42852        15.24249
     2010.62833        45.78819        15.30593
     2010.63107        66.30486        15.55694
     2010.63381        56.71353        15.23422
     2010.63655        49.07920        15.45212
     2010.63928        49.19188        15.14595
     2010.64202        45.78555        15.09354
     2010.64476        43.07722        15.39971
     2010.64750        43.02489        15.12664
     2010.65023        45.61756        15.75002
     2010.65297        43.69024        15.81346
     2010.65571        48.76291        14.73772
     2010.65845        51.26158        14.96942
     2010.66119        43.42925        15.00803
     2010.66392        45.78592        15.17629
     2010.66666        32.61960        15.35834
     2010.66940        42.50727        14.90046
     2010.67214        36.51194        15.08251
     2010.67761        51.20828        15.00527
     2010.68035        45.45896        15.11285
     2010.71047        48.42535        15.33076
     2010.71315        31.56548        15.84380
     2010.71600        37.31023        15.69486
     2010.71868        56.08936        15.56246
     2010.72142        47.87404        15.44661
     2010.72416        44.36771        15.45212
     2010.72689        45.08038        16.74578
     2010.72963        23.24205        15.28938
     2010.73231        30.36519        15.98448
     2010.73517        24.44993        16.06171
     2010.73785        33.30807        15.59556
     2010.74058        37.70774        15.69486
     2010.74332        48.35041        15.82174
     2010.74606        51.53608        15.17905
     2010.74880        44.71875        17.54293
     2010.75148        49.01289        15.37213
     2010.75433        50.83363        15.92931
     2010.75649        53.01891        18.84762
     2010.76249        66.69711        15.03286
     2010.76522        64.59379        15.37489
     2010.76796        44.50546        15.09630
     2010.77070        21.21013        15.24801
     2010.77344        28.79680        15.32248
     2010.77618        32.82547        15.09078
     2010.77891        28.87615        15.24801
     2010.78165        36.35782        14.99424
     2010.78439        32.37849        15.20387
     2010.78713        32.42816        16.07826
     2010.78987        40.81983        15.31421
     2010.79260        43.54051        15.09354
     2010.79534        37.57118        15.18181
     2010.80082        39.27652        15.09078
     2010.80355        37.72019        15.07975
     2010.80629        36.77187        15.43833
     2010.80903        34.27054        15.13492
     2010.81177        31.11021        15.11009
     2010.81451        19.24188        15.40523
     2010.81724        40.51455        15.09354
     2010.81998        40.60623        15.26180
     2010.82272        37.10290        15.43006
     2010.82546        34.74257        15.15422
     2010.82820        35.81524        14.99976
     2010.83093        23.59091        16.04240
     2010.83367        31.56359        16.08654
     2010.83641        20.43226        16.74302
     2010.83915        18.28193        15.26180
     2010.84188        23.95560        15.38592
     2010.84462        33.03227        14.99700
     2010.84736        33.14295        15.43006
     2010.85010        34.58962        16.42305
     2010.85284        35.98829        14.90322
     2010.85557        33.18796        14.84253
     2010.85831        27.25663        15.15422
     2010.86105        28.04331        14.93080
     2010.86379        24.73098        15.10457
     2010.86653        23.51365        15.18457
     2010.86926        32.37332        15.35007
     2010.87200        25.38899        15.24249
     2010.87377       -12.49843        34.25285
     2010.87748        25.03634        15.31972
     2010.88021        33.13701        14.98321
     2010.88295        23.72368        15.54315
     2010.88569        23.44235        15.49901
     2010.88843        25.76203        15.93207
     2010.89117        21.86170        15.88518
     2010.89390        32.05737        14.97217
     2010.89664        33.15004        15.54039
     2010.89938        34.99671        15.85208
     2010.90212        10.53239        16.24376
     2010.90485        25.88006        15.44109
     2010.90759        27.65973        15.39144
     2010.91033        29.49640        15.36662
     2010.91307         7.28507        15.31697
     2010.91581        27.90275        15.32524
     2010.91854        22.63442        15.33352
     2010.92128        25.41409        15.05217
     2010.92402        11.04576        15.24801
     2010.92676        13.66743        15.42730
     2010.92950        10.96711        15.15974
     2010.93223         0.72078        15.28387
     2010.93497        17.36745        16.57752
     2010.93771        21.07812        17.15401
     2010.94045        28.94979        16.89473
     2010.94318        27.01647        16.52511
     2010.94592        -7.80486        17.16504
     2010.94866         7.72781        16.01758
     2010.95140        16.12948        16.54442
     2010.95414        18.14215        17.18711
     2010.95687       -10.62817        20.40607
     2010.95961        18.95450        16.69061
     2010.96235        14.31317        15.68382
     2010.96509        19.79784        15.51005
     2010.96783        24.54051        15.33903
     2010.96998        23.98875        22.15761
     2011.60848        47.27976        16.31824
     2011.61122        43.16943        16.00103
     2011.61396        41.40110        15.72520
     2011.61670        43.89077        15.80243
     2011.61943        42.84144        15.78312
     2011.62217        41.59012        15.67003
     2011.62491        35.21079        15.78588
     2011.62765        49.90046        15.56246
     2011.63039        46.98213        15.51005
     2011.63312        44.52280        15.69486
     2011.63586        39.16548        15.69761
     2011.63860        41.04315        15.99275
     2011.64134        37.29882        16.61614
     2011.64407        53.05749        15.99000
     2011.64681        46.61416        15.91552
     2011.64955        45.22384        16.13895
     2011.65229        40.53851        15.88794
     2011.65503        36.34918        16.14170
     2011.65776        41.57685        15.81622
     2011.66050        52.63952        16.26307
     2011.66324        51.77220        16.02310
     2011.66598        41.99087        16.21618
     2011.66872        35.73054        16.05068
     2011.67145        43.71321        15.54591
     2011.67419        51.43188        15.52660
     2011.67693        58.01056        15.74175
     2011.67967        49.09923        15.70037
     2011.68240        39.61590        16.00379
     2011.68514        39.61357        15.96793
     2011.68788        44.64824        15.95138
     2011.69062        44.68492        15.87966
     2011.69336        45.97659        16.03413
     2011.69609        42.54026        16.31272
     2011.69883        53.14893        16.00103
     2011.70157        49.67260        15.64796
     2011.70431        50.76627        15.55418
     2011.70705        47.18495        16.11688
     2011.70978        36.87462        15.91552
     2011.71252        25.26029        16.54994
     2011.71526        35.54996        16.13619
     2011.71800        47.55363        15.88518
     2011.72073        57.15231        15.62314
     2011.72347        24.11898        15.98448
     2011.72621        26.13065        16.09481
     2011.72895        53.60932        15.75830
     2011.73169        51.46299        16.42581
     2011.73442        37.63667        16.28238
     2011.73716        46.61534        16.24652
     2011.73990        37.49201        17.31123
     2011.74264        31.93768        16.12515
     2011.74538        41.44835        16.43960
     2011.74811        48.83603        16.63269
     2011.75085        42.53670        16.45064
     2011.75359        48.64437        16.35409
     2011.75633        45.87204        16.22170
     2011.75906        62.09771        16.73198
     2011.76180        58.44839        16.16929
     2011.76454        43.96506        16.62441
     2011.76728        46.06773        16.22170
     2011.77002        42.22440        16.46443
     2011.77275        37.07507        16.82853
     2011.77549        29.73375        20.53295
     2011.77823        31.54542        17.17883
     2011.78097        46.02509        16.10033
     2011.78371        37.76776        16.48098
     2011.78644        47.56743        16.41202
     2011.78918        45.14611        15.82725
     2011.79192        38.65678        15.99551
     2011.79466        39.66045        15.57625
     2011.79739        43.21912        15.67279
     2011.80013        34.28979        16.39271
     2011.80287        40.85947        16.44512
     2011.80561        28.13414        16.16101
     2011.80835        42.82681        16.02310
     2011.81108        45.17948        15.87966
     2011.81382        39.28715        16.35409
     2011.81656        38.31083        16.41478
     2011.81930        38.78850        15.79691
     2011.82203        34.26317        15.89345
     2011.82477        28.37384        16.63820
     2011.82751        25.89651        16.26583
     2011.83025        36.23319        15.97896
     2011.83299        43.16786        16.02585
     2011.83572        33.36253        15.64796
     2011.83846        33.12320        15.76657
     2011.84120        49.74987        15.75278
     2011.84394        51.84655        16.41202
     2011.84668        46.79922        15.95138
     2011.84941        42.16289        15.57901
     2011.85215        37.35556        15.49350
     2011.85489        34.59423        15.85208
     2011.85763        43.61791        16.58855
     2011.86036        45.69758        15.57625
     2011.86310        41.83925        15.65900
     2011.86584        40.88992        15.98172
     2011.86858        37.75859        15.69210
     2011.87132        40.97427        15.60107
     2011.87405        28.39794        15.80519
     2011.87679        41.66661        15.87139
     2011.87953        39.52228        15.53487
     2011.88227        42.27695        15.28662
     2011.88501        49.06063        15.51005
     2011.88774        24.09130        15.89897
     2011.89048        32.19697        15.99551
     2011.89322        39.12964        16.42305
     2011.89596        31.27831        15.84105
     2011.89869        14.83799        17.89600
     2011.90143        28.35066        19.03518
     2011.90417        19.06333        18.19114
     2011.90691        30.16700        17.29192
     2011.90965        28.44667        16.87818
     2011.91238        34.41935        17.92910
     2011.91512        39.61702        18.39249
     2011.91786        36.61569        18.20769
     2011.92060        24.51736        16.88921
     2011.92334        20.51203        17.57327
     2011.92607        17.46571        17.90427
     2011.92881        21.35238        17.08505
     2011.93155        20.25005        16.53890
     2011.93429        29.76472        16.56924
     2011.93702        22.67739        16.76784
     2011.93976        24.29106        16.67130
     2011.94250        35.35174        16.05895
     2011.94524        33.65141        16.19687
     2011.94798        35.82408        16.87542
     2011.95071        29.03275        16.08378
     2011.95345        37.71942        16.73198
     2011.95619        23.39810        16.74578
     2011.95893        29.91077        15.83553
     2011.96167        20.10244        16.32375
     2011.96440        39.49211        16.00103
     2011.96714        32.43178        16.28238
     2011.96988        36.12046        15.89621
     2011.97262        30.46413        15.79416
     2011.97535        16.97280        15.94862
     2011.97809        12.37947        15.89621
     2011.98083        19.93614        16.30720
     2011.98357        26.27082        15.57625
     2011.98631        15.57849        15.87690
     2011.98904        29.03016        16.53614
     2011.99178        32.36783        15.98448
     2011.99452        33.17250        17.11815
     2011.99726        56.33118        24.19325
     2012.00273        35.48452        21.36321
     2012.00547        25.13919        18.45594
     2012.00821        42.89486        18.23803
     2012.01095        39.48254        17.84359
     2012.01368        41.32321        17.35261
     2012.01642        45.84488        18.40077
     2012.01916        38.16455        18.81176
     2012.02190        49.41422        18.89175
     2012.02464        29.70590        19.62822
     2012.02737        28.36557        21.49561
     2012.03011        24.69124        20.37297
     2012.03285        20.08191        20.49158
     2012.03559        30.42058        17.09332
     2012.03833        29.85726        17.20642
     2012.04106        37.49693        21.14806
     2012.04380        29.69160        20.83085
     2012.04654        38.96827        19.08759
     2012.04928        34.34394        16.49201
     2012.05201        30.47162        17.84911
     2012.05475        62.24129        23.98913
     2012.05749        61.56596        24.07188
     2012.06023        63.56563        24.11877
     2012.06297        43.39030        23.81812
     2012.06570        44.65598        18.18838
     2012.06844        25.74365        19.23654
     2012.07118        16.94332        19.65856
     2012.07392        20.74699        19.60340
     2012.07666       -17.60934        20.93291
     2012.07939        23.42934        23.81536
     2012.08213        37.21701        24.80008
     2012.08487        25.12268        25.34347
     2012.08761        66.91835        22.23208
     2012.09034        30.58002        22.00590
     2012.09308        18.86770        23.05682
     2012.09582        33.05337        23.44023
     2012.09856        -6.47196        24.55735
     2012.10130       -15.27129        29.36234
     2012.10403         5.87838        29.20236
     2012.10677        46.20706        28.41348
     2012.10951        50.47373        27.90043
     2012.11225        69.02940        27.66873
     2012.11498        73.62507        27.94732
     2012.11772        90.03374        25.40139
     2012.12046       100.44242        23.24714
     2012.12320       104.18409        24.85249
     2012.12594        78.67876        26.30061
     2012.12867        49.38143        24.65665
     2012.13141        85.99210        26.52127
     2012.44626        13.51438        47.49831
     2012.44900        17.41405        22.64583
     2012.45174        15.19272        21.34114
     2012.45448        37.77940        20.08059
     2012.45722        43.01007        18.44766
     2012.45995        13.34874        17.93737
     2012.46269        37.11741        16.81198
     2012.46543        33.20208        17.71119
     2012.46817        38.48476        16.97196
     2012.47091        43.79443        16.32651
     2012.47364        31.69710        15.64521
     2012.47638        34.36977        16.19135
     2012.47912        35.48344        16.43684
     2012.48186        40.55812        16.14446
     2012.48459        42.99179        16.06723
     2012.48733        40.40646        18.23803
     2012.49007        31.22213        15.67831
     2012.49281        31.00780        15.40799
     2012.49555        37.96348        15.29214
     2012.49828        52.16615        15.62038
     2012.50102        37.89582        15.53763
     2012.50376        25.74749        16.20515
     2012.50650        41.92016        15.68106
     2012.50924        40.21384        16.10860
     2012.51197        43.47551        15.99275
     2012.51471        42.74318        15.78588
     2012.51745        44.05585        15.92931
     2012.52019        34.87452        15.92655
     2012.52292        45.59320        15.53211
     2012.52566        52.12487        15.48522
     2012.52840        50.36754        15.33076
     2012.53114        53.61921        15.58452
     2012.53388        55.83588        15.94862
     2012.53661        52.10456        15.77485
     2012.53935        54.12923        15.57625
     2012.54209        54.71190        15.49350
     2012.54483        56.35557        15.07423
     2012.54757        54.99824        15.42454
     2012.55030        47.76992        15.62590
     2012.55304        52.44059        15.14871
     2012.55578        47.02226        15.42178
     2012.55852        45.22093        15.41902
     2012.56125        57.20260        14.96114
     2012.56399        57.65328        15.64521
     2012.56673        48.08095        15.77761
     2012.56947        51.31062        15.54591
     2012.57221        57.06729        15.58176
     2012.57494        50.40996        15.14043
     2012.57768        48.52664        15.54315
     2012.58042        57.22731        15.64521
     2012.58316        54.08598        15.32800
     2012.58590        66.95665        15.12112
     2012.58863        58.87032        15.43006
     2012.59137        49.48900        15.36662
     2012.59411        57.85367        15.67003
     2012.59685        54.58034        15.67003
     2012.60506        57.35036        15.30593
     2012.60780        54.56003        15.01079
     2012.61054        61.41870        15.26180
     2012.61327        55.63537        15.14871
     2012.61601        63.67404        14.91701
     2012.61875        72.98072        15.17353
     2012.62149        58.12039        15.08802
     2012.62423        59.24006        15.20663
     2012.62696        58.79173        15.07147
     2012.62970        55.69040        14.99976
     2012.63140        54.07431        30.34431
     2012.63518        60.33775        15.27559
     2012.63791        58.56742        14.90873
     2012.64065        60.57409        15.02182
     2012.64339        61.19076        14.80668
     2012.64613        58.56644        15.11285
     2012.64887        58.13711        15.10733
     2012.65160        57.85078        15.16250
     2012.65434        54.72845        15.21491
     2012.65708        63.49712        15.63693
     2012.65982        64.47379        15.17629
     2012.66256        61.25847        14.93080
     2012.66529        57.15814        15.04665
     2012.66803        62.02481        14.82874
     2012.67077        50.19848        15.39971
     2012.67351        59.95615        14.78461
     2012.67624        59.69983        15.21767
     2012.67898        62.74850        18.39801
     2015.76302        87.49360        45.32751
     2015.76454        94.16782        14.75978
     2015.76728       103.08549        14.78461
     2015.77002       100.04716        15.25904
     2015.77275       104.22383        15.36110
     2015.77549       114.62950        16.74026
     2015.77823       103.64418        15.79967
     2015.78097       109.47685        15.07975
     2015.78371       114.11852        15.34731
     2015.78644       122.54319        14.64669
     2015.78918       107.15986        14.95287
     2015.79192       119.01854        14.76530
     2015.79466       120.77821        14.59428
     2015.79739       126.32488        14.84253
     2015.80013       117.86355        15.79967
     2015.80287       114.92622        15.12388
     2015.80561       116.10090        15.14043
     2015.80835       112.61157        15.24249
     2015.81108       108.03024        15.40799
     2015.81382       102.60291        16.26031
     2015.81656       108.65958        16.20515
     2015.81930       113.07626        15.71416
     2015.82203       112.85493        16.31548
     2015.82477       121.63260        17.69188
     2015.82751       119.17327        16.21342
     2015.83025       111.11694        16.82853
     2015.83299       112.03262        15.73347
     2015.83572       117.08129        15.71141
     2015.83846       117.30396        15.79416
     2015.84120       110.45163        15.41075
     2015.84394       102.96830        16.02585
     2015.84668       111.47998        16.19687
     2015.84941       102.09465        16.33754
     2015.85215       117.91632        16.29617
     2015.85489       127.52499        16.21618
     2015.85763       125.93566        15.69486
     2015.86036        99.52034        15.71692
     2015.86310       100.26501        15.33076
     2015.86584        88.72068        20.59364
     2015.86858       100.32035        20.02266
     2015.87132       107.37102        16.64924
     2015.87405       109.44470        16.34030
     2015.87679        83.71737        20.45020
     2015.87953       110.80904        16.31272
     2015.88227       106.63671        15.78312
     2015.88501       104.94838        16.67958
     2015.88774       106.54106        16.31272
     2015.89048       112.81273        17.05747
     2015.89322       109.05140        16.92507
     2015.89596       115.96807        16.24928
     2015.89869       114.88874        16.57200
     2015.90143       103.74042        15.50453
     2015.90417        92.49909        15.86863
     2015.90691        89.69376        15.76106
     2015.90965        95.17243        15.74726
     2015.91238        98.41410        15.86863
     2015.91512        97.65378        15.67003
     2015.91786        95.02645        15.83553
     2015.92060       106.88412        16.41202
     2015.92334       105.74279        16.45339
     2015.92607        92.94646        16.25204
     2015.92881        89.92614        16.98023
     2015.93155        80.25581        17.29468
     2015.93429        86.45348        18.83934
     2015.93702        84.55415        19.54272
     2015.93976       103.73082        18.64350
     2015.94250        96.37650        25.52000
     2015.94524       100.95117        24.91869
     2015.94798        86.88384        24.36426
     2015.95071        92.96651        23.10923
     2015.95345        92.38518        25.36002
     2015.95619       113.46186        30.55670
     2015.95893        84.64853        28.68655
     2015.96167        86.95520        26.08821
     2015.96440        83.85187        24.11877
     2015.96714        78.68054        24.99316
     2015.96988        84.55422        25.21107
     2015.97262       128.14789        25.16969
     2015.97535       136.00456        27.63012
     2015.98631       158.15925        27.09500
     2015.98904       160.27392        26.14890
     2015.99178       149.30259        26.11304
     2015.99452       147.29326        25.49242
     2015.99726       132.80894        25.28554
     2016.00000       121.08461        22.92166
     2016.00273       164.68528        22.03624
     2016.00821       157.58462        22.46102
     2016.01095       166.62129        21.93418
     2016.01368       162.20097        21.31080
     2016.01642       176.29164        22.17967
     2016.01916       161.57631        22.84167
     2016.02190       176.14398        20.78672
     2016.02464       166.33465        21.02669
     2016.02737       152.58233        21.04600
     2016.03011       142.64300        21.80730
     2016.04296       163.85151        39.51021
     2016.70636       109.23198        15.63141
     2016.70910       113.91465        15.15147
     2016.71184       106.86832        14.73220
     2016.71457       125.15599        14.96390
     2016.71731       119.01767        14.88391
     2016.72005       119.38234        14.48947
     2016.72279       120.34201        14.53636
     2016.72553       110.23968        14.98597
     2016.72826       109.62535        15.08251
     2016.73100       109.74203        14.53360
     2016.73374       109.36870        14.78461
     2016.73648       116.76937        14.68255
     2016.73921       110.97704        14.87839
     2016.74195       101.38471        14.78185
     2016.74469       100.37538        14.60808
     2016.74743       114.18606        14.53084
     2016.75017       117.25073        14.62738
     2016.75290       117.37140        14.58049
     2016.75564       114.07907        14.44809
     2016.75838       122.77074        14.54188
     2016.76112       137.44942        14.52808
     2016.76386       113.67609        14.87839
     2016.76659       101.55576        14.98597
     2016.76933       123.45743        14.98045
     2016.77207       115.73010        14.83150
     2016.77481       137.10578        14.89770
     2016.77754       110.38745        14.43982
     2016.78028       107.04112        14.69358
     2016.78302       107.59679        14.99424
     2016.78576       129.67946        15.03837
     2016.78850       141.53614        15.08251
     2016.79123       132.00381        15.14043
     2016.79671       148.75515        14.73772
     2016.79945       131.16082        14.54739
     2016.80219       110.27450        15.23973
     2016.80492       108.13217        14.85357
     2016.80766       105.34584        14.68807
     2016.81040        94.43951        14.91701
     2016.81314       102.72518        14.79564
     2016.81587       109.32286        14.90598
     2016.81861       113.87353        15.06320
     2016.82135       119.28020        14.82323
     2016.82409       130.46187        14.69910
     2016.82683       123.60154        14.51981
     2016.82956       133.15722        14.53912
     2016.83230       144.31889        15.10182
     2016.83504       131.91256        14.78737
     2016.83778       111.23523        15.08802
     2016.84052        96.19290        14.82323
     2016.84325        94.30958        14.51705
     2016.84599        98.53425        15.06320
     2016.84873       129.23292        14.88667
     2016.85147       117.37859        15.24249
     2016.85420        99.23026        15.45212
     2016.85694       110.46594        15.26180
     2016.85968       106.66161        15.15147
     2016.86242        89.68328        14.94459
     2016.86516       107.78495        15.34731
     2016.86789       100.58262        14.80392
     2016.87063       122.52330        15.02458
     2016.87337       133.38397        14.69083
     2016.87611       133.16764        14.46189
     2016.87885       130.93831        14.49223
     2016.88158       120.04898        14.60256
     2016.88432       126.54966        15.25077
     2016.88706       128.27033        15.25352
     2016.88980       146.25900        14.67979
     2016.89253       139.17067        14.90046
     2016.89527       129.03134        14.79288
     2016.89801       127.60302        15.28387
     2016.90075       125.72969        15.38592
     2016.90349       123.36936        15.55142
     2016.90622       138.36503        15.38592
     2016.90896       133.81870        15.23973
     2016.91170       137.72438        15.29490
     2016.91444       134.87305        15.15698
     2016.91718       132.13072        15.65900
     2016.91991       125.57839        15.47419
     2016.92265       128.98406        15.18181
     2016.92539       111.83474        16.97196
     2016.92813       104.61541        19.21172
     2016.93086        93.98908        18.33457
     2016.93360       115.07775        17.17332
     2016.93634       126.91842        15.47143
     2016.93908       112.59210        15.79691
     2016.94182       122.24077        15.69486
     2016.94455        96.46144        18.64074
     2016.94729        98.11311        17.95668
     2016.95003       109.51578        17.38295
     2016.95277       115.84246        16.26859
     2016.95551       121.41713        15.37489
     2016.95824       122.09280        15.10457
     2016.96098       122.37947        15.17353
     2016.96372       119.12714        15.26732
     2016.96646       100.81681        16.82025
     2016.96919        80.70149        17.96495
     2016.97193        93.23616        16.14722
     2016.97467        91.81583        15.48798
     2016.97741       130.06350        15.47695
     2016.98015       133.75617        15.25904
     2016.98288       125.73785        15.47419
     2016.98562       122.67552        15.43281
     2016.98836       110.15919        15.95690
     2016.99110        89.47786        17.29468
     2016.99384       107.92153        15.71692
     2016.99657       127.97421        15.05217
     2016.99931       133.10388        14.89770
     2017.00205       129.72955        15.44936
     2017.00479       134.09422        16.21342
     2017.00752       125.72189        14.91701
     2017.01026       126.95757        14.86460
     2017.01300       134.51224        14.85357
     2017.01557       124.67231        16.05344
     2017.40999        87.64468        15.20387
     2017.41273        87.33035        15.24801
     2017.41546        90.99802        15.16250
     2017.41820        92.73069        15.46867
     2017.42094        87.16636        15.27835
     2017.42368        90.93604        15.20663
     2017.42642        97.33771        15.39144
     2017.42915        95.68538        15.34731
     2017.43189        90.45605        15.30317
     2017.43463       102.82072        15.06044
     2017.43737       108.50040        14.89770
     2017.44010       103.92807        14.94459
     2017.44284        97.73574        14.97769
     2017.44558        96.50341        15.08802
     2017.44832       100.37508        15.05217
     2017.45106       105.87775        14.96942
     2017.45379       104.94543        15.73071
     2017.45653       105.75910        16.64648
     2017.45927       108.31077        15.38868
     2017.46201        96.62244        15.64521
     2017.46475       102.31211        15.15698
     2017.46748       105.49179        15.25077
     2017.47022        96.82646        15.35834
     2017.47296       100.53413        14.99700
     2017.47570        97.66380        14.69634
     2017.47843        96.09947        14.66600
     2017.48117        99.25715        14.72944
     2017.48391       105.63982        15.07699
     2017.48665       112.21449        15.05217
     2017.48939       105.31916        14.84805
     2017.49212       101.83183        14.79013
     2017.49486       100.99051        14.66876
     2017.49760       108.81718        14.99424
     2017.50034       112.66285        14.97217
     2017.50308       109.26852        14.74599
     2017.50581       105.84519        14.90873
     2017.50855        99.18387        15.01907
     2017.51129        98.94754        14.92253
     2017.51403       107.93621        15.32800
     2017.51676       104.55588        14.74599
     2017.51950       105.22755        14.67979
     2017.52224       121.94423        14.53912
     2017.52498       114.43490        14.81771
     2017.52772       104.64457        15.28387
     2017.53045        99.63724        14.82874
     2017.53319       104.88091        14.65773
     2017.53593       109.08059        14.80116
     2017.53867       102.89026        14.58049
     2017.54141       120.04593        14.70738
     2017.54414       109.76960        14.70186
     2017.54688       108.67127        14.76254
     2017.54962       102.75195        14.67428
     2017.55236       118.83362        14.60808
     2017.55509       122.37229        14.89770
     2017.55783       119.37496        14.90322
     2017.56057       103.79963        15.11561
     2017.56331       106.69331        14.75978
     2017.56605       112.89798        14.75703
     2017.56878       116.15465        14.88943
     2017.57152       114.36832        14.58601
     2017.57426       114.32799        14.70462
     2017.57700       113.21367        14.92804
     2017.57974       114.12534        14.58325
     2017.58247       118.04601        14.92804
     2017.58521       111.16468        14.81771
     2017.58795       111.11135        14.90598
     2017.59069       116.83403        15.06320
     2017.59342       114.65770        14.67152
     2017.59616       117.27837        14.97493
     2017.59890       114.95204        15.02182
     2017.60164       114.21071        14.91149
     2017.60438       116.92939        14.73772
     2017.60711       114.90406        14.79840
     2017.60985       113.88273        15.16526
     2017.61259       115.72040        14.93908
     2017.61533       121.45807        15.47971
     2017.61807       113.45475        15.02734
     2017.62080       112.83742        14.69634
     2017.62354       111.98009        14.98045
     2017.62628       117.42776        15.44109
     2017.62902       121.53943        15.49074
     2017.63175       101.41711        14.74875
     2017.63449       116.75578        15.09630
     2017.63723       117.87045        14.70186
     2017.63997       119.61512        14.88943
     2017.64271       115.28779        14.88115
     2017.64544       113.85947        14.75151
     2017.64818       117.34114        15.14871
     2017.65092       120.43681        14.42327
     2017.65366       116.72548        14.89218
     2017.65639       112.11815        14.94735
     2017.65913       113.59883        15.24801
     2017.66187       109.39550        14.99976
     2017.66461       122.14517        15.47143
     2017.66735       115.50184        15.01631
     2017.67008       125.62251        14.68807
     2017.67282       113.18219        15.59280
     2017.67556       117.32886        14.60532
     2017.67830       115.79453        14.61083
     2017.68104       118.69920        14.60808
     2017.68377       123.80787        14.90322
     2017.68651       119.15554        15.43006
     2017.68925       110.97922        15.15698
     2017.69199       117.39189        14.93080
     2017.69472       127.81656        14.91425
     2017.69746       123.59123        14.92528
     2017.70020       113.61490        15.03562
     2017.70294       126.14258        15.30317
     2017.70568       120.11225        15.20387
     2017.70841       122.24792        14.70462
     2017.71115       115.30759        14.77358
     2017.71389       117.72026        14.93908
     2017.71663       134.45594        14.70462
     2017.71937       139.32061        15.00527
     2017.72210       149.07328        14.80116
     2017.72484       117.31195        14.73220
     2017.72758       120.01762        14.68807
     2017.73032       119.01330        14.69083
     2017.73305       117.10997        14.65497
     2017.73579       114.32764        14.91977
     2017.73853       119.12531        14.57222
     2017.74127       116.64198        14.58049
     2017.74401       116.98866        14.96390
     2017.74674       125.14533        14.71565
     2017.74948       123.18600        14.90046
     2017.75222       122.04967        14.76806
     2017.75496       119.37634        14.79013
     2017.75770       119.11802        15.22042
     2017.76043       119.82669        14.69358
     2017.76317       116.99136        14.74048
     2017.76591       121.04203        15.12388
     2017.76865       129.56270        14.79288
     2017.77138       119.09338        15.17353
     2017.77412       118.60305        14.57498
     2017.77686       122.80072        14.83702
     2017.77960       130.50939        14.82598
     2017.78234       135.01106        14.67152
     2017.78507       129.05974        14.53912
     2017.78781       119.22741        14.64393
     2017.79055       108.76508        14.68531
     2017.79329       109.51975        15.57349
     2017.79603       117.54642        14.84805
     2017.79876       139.70810        15.01631
     2017.80150       148.12777        15.02182
     2017.80424       149.15244        14.89494
     2017.80698       104.18311        14.95011
     2017.80971       117.61378        14.97769
     2017.81245       115.81446        14.80116
     2017.81519       120.73013        15.06596
     2017.81793       112.78980        14.66048
     2017.82067       113.64147        14.85357
     2017.82340       115.82314        14.54463
     2017.82614       118.04182        14.58325
     2017.82888       115.65149        14.82874
     2017.83162       121.99116        14.71565
     2017.83436       111.59983        14.71565
     2017.83709       123.24550        14.86736
     2017.83983       112.22818        14.60808
     2017.84257       131.96985        14.64669
     2017.84531       122.93952        14.69083
     2017.84804       126.17919        14.56394
     2017.85078       137.77086        14.59980
     2017.85352       116.40554        14.63842
     2017.85626       127.82921        15.46316
     2017.85900       138.51588        15.05492
     2017.86173       144.73455        15.06872
     2017.86447       131.82122        15.28111
     2017.86721       154.65890        15.16802
     2017.86995       134.52257        15.25904
     2017.87269       150.15824        14.94183
     2017.87542       140.57591        14.96666
     2017.87816       139.76358        14.98872
     2017.88090       138.27026        14.90322
     2017.88364       121.54293        15.13767
     2017.88637       139.03060        15.26456
     2017.88911       123.00127        15.42454
     2017.89185       111.51694        16.02034
     2017.89459       121.60862        15.01631
     2017.89733       119.77129        14.88391
     2017.90006       129.84896        14.83426
     2017.90171        88.85838        33.29020
     2017.90657       138.35993        29.67128
     2017.90828       135.76798        14.89494
     2017.91102       140.70665        15.04941
     2017.91375       117.08832        15.34731
     2017.91649       114.50399        14.65221
     2017.91923       107.20566        14.87288
     2017.92197       127.35634        14.77358
     2017.92470       115.78701        14.98872
     2017.92744       105.16668        14.97769
     2017.93018       101.26235        14.74048
     2017.93292       108.97002        15.51832
     2017.93566       110.04469        14.85357
     2017.93839       113.67937        14.97493
     2017.94113       113.68804        15.07699
     2017.94387       111.14671        14.78461
     2017.94661        98.40038        14.98045
     2017.94935       100.44905        14.99976
     2017.95208       109.09973        15.38041
     2017.95482        98.82040        15.03837
     2017.95756       105.59207        14.69083
     2017.96030       105.84774        14.85633
     2017.96303       100.06841        14.77633
     2017.97125       119.62643        18.06425
     2017.97399       106.64010        16.35409
     2017.97672       111.91577        15.72520
     2017.97946       118.22245        15.25628
     2017.98220       121.76312        15.13767
     2017.98494       120.27479        15.29490
     2017.98767       111.47046        15.33352
     2017.99041       118.48313        15.14595
     2017.99315       105.67781        17.13470
     2017.99589       111.87048        20.96601
     2017.99863       109.42815        21.52043
     2018.00136       106.67082        19.26137
     2018.00410       113.10149        18.38422
     2018.00684       112.93317        17.78842
     2018.00958       108.76884        19.41583
     2018.73511       117.29691        14.32121
     2018.73785       120.67358        14.42051
     2018.74058       120.13626        14.29914
     2018.74332       121.04393        14.34879
     2018.74606       117.99660        14.25777
     2018.74880       118.09827        14.39017
     2018.75085       106.70448        20.25436
     2018.76522       117.49930        14.56394
     2018.76796       126.86598        14.34052
     2018.77070       125.84565        14.46189
     2018.77344       122.94032        14.40672
     2018.77618       125.18799        14.33500
     2018.77891       123.89866        14.52808
     2018.78165       121.17434        14.53360
     2018.78439       125.81901        14.26604
     2018.78713       121.22268        14.31294
     2018.78987       115.56335        14.52257
     2018.79260       120.31802        14.25225
     2018.79534       129.65570        14.32121
     2018.79808       121.19337        14.28259
     2018.80082       129.74504        14.26604
     2018.80355       127.45471        14.22743
     2018.80629       128.74138        14.73496
     2018.80903       119.85106        14.48119
     2018.81173       127.14333        15.34455
     2018.81451       113.81540        14.73772
     2018.81724       113.00707        15.01907
     2018.81998       120.76574        14.44534
     2018.82272       126.28142        14.50326
     2018.82546       143.88709        14.36534
     2018.82820       128.68776        14.33500
     2018.83093       121.99243        14.58601
     2018.83367       120.19910        14.77082
     2018.83641       119.22978        14.62187
     2018.83915       120.29645        14.51981
     2018.84188       102.21112        14.90598
     2018.84462       117.72879        14.35983
     2018.84736       131.52146        14.22467
     2018.85010       138.22114        14.18605
     2018.85284       125.68981        14.29363
     2018.85557       115.31948        14.70462
     2018.85831       114.14115        14.44534
     2018.86105       113.07382        14.39844
     2018.86379       118.67450        14.62187
     2018.86653       124.19217        14.35155
     2018.86926       103.23584        14.49223
     2018.87200       113.76451        14.44809
     2018.87474       115.43018        14.56670
     2018.87748       119.53586        14.55015
     2018.88021       121.28653        14.50602
     2018.88295       124.11920        14.51705
     2018.88569       123.48187        14.66324
     2018.88843       121.21054        14.80943
     2018.89117       125.91421        14.93356
     2018.89390       128.17189        14.71289
     2018.89664       131.52056        14.97217
     2018.89938       117.76523        14.71013
     2018.90212       106.95990        15.10733
     2018.90485       127.08057        15.37765
     2018.90759       134.31025        14.74048
     2018.91033       140.45792        14.52808
     2018.91307       149.30659        14.91977
     2018.91581       145.08226        14.61911
     2018.91854       146.73193        14.61635
     2018.92128       140.86461        14.60256
     2018.92402       137.94228        14.55843
     2018.92676       129.96695        14.47292
     2018.92950       125.82562        14.55843
     2018.93223       119.61829        14.83978
     2018.93497       119.26597        14.69634
     2018.93771       124.05464        14.78461
     2018.94045       135.46631        14.39293
     2018.94318       116.15098        14.50602
     2018.94592       133.17665        14.46464
     2018.94866       118.03333        15.09078
     2018.95140       118.89900        15.15698
     2018.95414       137.85967        14.54188
     2018.95687       126.13234        14.88943
     2018.95961       142.09301        15.20112
     2018.96235       143.15669        14.72117
     2018.96509       141.74336        14.59153
     2018.96783       115.67903        15.59831
     2018.97056       145.14870        14.99976
     2018.97330       139.30037        14.73220
     2018.97604       131.50705        15.33627
     2018.97878       120.95072        15.12388
     2018.98151       114.01439        14.85633
     2018.98425       124.88006        15.19836
     2018.98699       129.11773        15.36937
     2018.98973       132.78541        15.42730
     2018.99247       115.84208        15.87415
     2018.99520       119.84575        16.23273
     2018.99794       109.18742        17.08505
     2019.00068       112.13409        16.99678
     2019.00342       105.66277        16.92507
     2019.00616        85.56144        17.46846
     2019.00889       112.11811        16.66854
     2019.01163       117.03078        16.32651
     2019.01437       115.90545        16.54166
     2019.01711       116.55413        17.30020
     2019.01984       108.32080        16.85611
     2019.02258       119.34747        16.51959
     2019.02532       119.78414        16.30444
     2019.02806       112.56781        16.30996
     2019.03080       112.63649        16.35961
     2019.03261       107.95751        28.34728
     2019.41521       108.86304        44.38969
     2019.41683       109.38923        30.30569
     2019.41957       107.63791        24.70905
     2019.42231       109.44758        20.43090
     2019.42505        99.86125        14.98321
     2019.42778       117.02392        15.11285
     2019.43052       128.79159        14.36259
     2019.43326       118.29727        14.53084
     2019.43600       110.01694        14.57773
     2019.43874       109.75561        14.88943
     2019.44147       112.81828        14.88667
     2019.48254       116.80736        14.84529
     2019.48528       125.40603        14.75151
     2019.48802       121.32271        14.74599
     2019.49076       119.03038        14.37914
     2019.49349       118.87905        14.49774
     2019.49623       118.07572        14.49499
     2019.49897       121.81439        14.45085
     2019.50171       125.65807        14.35707
     2019.50444       120.06774        14.37638
     2019.50718       119.43241        14.44258
     2019.50992       119.20508        14.49499
     2019.51266       118.69675        14.31018
     2019.51540       126.62243        14.31294
     2019.51813       121.90910        14.46740
     2019.51959        99.14178        81.37052
     2019.52361       115.22444        14.80116
     2019.52531       117.47440        28.75000
     2019.52908       120.90979        15.00527
     2019.53182       122.12146        14.76254
     2019.53456       126.27013        14.86184
     2019.53730       129.17880        14.96114
     2019.54004       116.98647        14.96390
     2019.54277       129.24215        14.90046
     2019.54551       128.52882        15.31145
     2019.54695       163.29128       113.29810
     2019.55099       121.35716        14.61635
     2019.55646       127.07351        14.83978
     2019.55920       122.50718        15.06872
     2019.56194       131.68585        14.44534
     2019.56468       128.24052        14.80392
     2019.56741       112.95319        14.56670
     2019.57015       122.08987        14.34604
     2019.57289       120.58954        14.69634
     2019.57563       127.08121        14.42879
     2019.57837       121.74288        14.85908
     2019.58110       117.26255        14.53084
     2019.58384       124.53623        15.38868
     2019.58658       125.25490        14.41775
     2019.58932       127.59057        14.45085
     2019.59206       124.60424        14.76254
     2019.59479       131.75291        14.74048
     2019.59753       130.93059        15.19284
     2019.60027       129.75226        15.10733
     2019.60301       128.23593        14.47016
     2019.60574       126.62860        15.12388
     2019.60848       135.89827        15.06596
     2019.61122       128.13794        14.33224
     2019.61396       127.13862        14.79288
     2019.61670       131.93129        14.49223
     2019.61943       127.10796        14.40948
     2019.62217       135.09463        14.87839
     2019.62491       131.45130        14.40120
     2019.62765       141.87298        14.46464
     2019.63039       138.12765        14.45085
     2019.63312       125.89232        14.50878
     2019.63860       142.63266        14.64945
     2019.64134       126.40234        14.67979
     2019.64407       119.66701        14.70186
     2019.64681       124.06668        14.51154
     2019.64955       130.34035        14.34052
     2019.65229       132.93502        14.40948
     2019.65503       130.86770        14.66324
     2019.66050       138.54604        14.90598
     2019.66324       122.49571        14.48947
     2019.66598       120.18238        14.90873
     2019.66872       127.58706        14.54188
     2019.67145       129.28973        14.84529
     2019.67419       132.44740        14.52257
     2019.67693       130.63607        14.91425
     2019.67967       131.02774        14.74323
     2019.68240       124.19542        14.61359
     2019.68514       132.91009        14.67152
     2019.68788       133.23976        14.53912
     2019.69062       135.07143        14.58601
     2019.69336       130.66410        14.41499
     2019.69609       126.14478        14.45913
     2019.69883       128.07945        15.06044
     2019.70157       117.40312        14.63566
     2019.70431       122.16179        14.47016
     2019.70705       130.88346        14.38465
     2019.70978       115.57414        14.82323
     2019.71252       121.03281        14.59153
     2019.71526       131.25148        14.33776
     2019.71800       127.56915        14.91977
     2019.72073       128.39082        15.00803
     2019.72347       130.43550        14.40948
     2019.72621       130.23117        14.59704
     2019.72895       130.23284        14.78737
     2019.73169       130.85551        14.70186
     2019.73442       132.20318        14.86184
     2019.73716       128.83386        14.49223
     2019.73990       135.34153        14.99424
     2019.74264       135.79020        14.57222
     2019.74538       139.93687        14.37638
     2019.74811       142.09454        14.67428
     2019.75085       127.82122        14.66048
     2019.75359       123.77789        15.09078
     2019.75633       127.67256        14.64669
     2019.75906       135.43923        14.37086
     2019.76180       127.40290        14.40120
     2019.76454       120.60558        14.63566
     2019.76728       116.15025        14.77082
     2019.77002       134.57592        14.52808
     2019.77275       127.97159        14.90046
     2019.77549       132.14726        14.74048
     2019.77823       137.30494        14.68807
     2019.78097       139.10461        14.70462
     2019.78371       129.61828        14.59153
     2019.78644       131.14795        14.82874
     2019.78918       122.24362        15.24249
     2019.79192       136.81330        14.87563
     2019.79466       146.08597        14.88943
     2019.79739       151.88264        14.81219
     2019.80013       153.31331        14.93080
     2019.80287       149.47398        15.01355
     2019.80561       121.58566        15.53487
     2019.80835       124.21033        14.74048
     2019.81108       125.90700        14.96114
     2019.81382       106.10567        15.18457
     2019.81656       126.26834        14.63566
     2019.81930       127.86002        14.58049
     2019.82203       129.78769        14.71013
     2019.82477       127.64836        14.77082
     2019.82751       126.92603        14.95287
     2019.83025       125.43870        14.99976
     2019.83299       128.34738        14.97217
     2019.83572       129.10905        14.67152
     2019.83846       131.63872        14.74048
     2019.84120       128.18739        14.79564
     2019.84394       126.27606        15.09078
     2019.84668       126.63573        14.64945
     2019.84941       130.49141        14.64393
     2019.85215       128.24908        14.64945
     2019.85489       111.63475        15.10733
     2019.85763       124.45742        14.73772
     2019.90417       150.77385        14.46189
     2019.90691       146.07652        14.43154
     2019.90835       152.81302        77.53369
     2019.91238       139.68186        14.56946
     2019.91512       135.77553        14.78461
     2019.91786       155.11521        14.57773
     2019.92060       144.09188        14.51429
     2019.92607       133.79222        14.53912
     2019.92881       124.39089        14.62187
     2019.93155       134.99957        14.67152
     2019.93429       161.60024        14.57773
     2019.93702       149.03291        14.51705
     2019.93976       131.42858        14.60808
     2019.94250       131.66425        14.71289
     2019.94524       122.29793        14.84253
     2019.94798       136.62560        14.65497
     2019.95071       143.57427        15.56246
     2019.95345       144.36294        14.82323
     2019.95619       140.93461        14.62463
     2019.95893       132.02529        14.95838
     2019.96167       131.47896        14.64669
     2019.96440       115.61863        15.40247
     2019.96714       133.51630        15.16250
     2019.96988       143.09797        16.41478
     2019.97262       150.40865        16.99678
     2019.97535       146.10232        16.56924
     2019.97809       143.06299        16.26031
     2019.98083       145.29866        16.09481
     2019.98357       150.24333        15.93759
     2020.43086        99.91149        32.71371
     2020.43258       113.02354        26.35853
     2020.43531       110.48521        24.72009
     2020.43805       102.76888        24.54080
     2020.44079        96.53655        22.15209
     2020.44991       111.51308        27.04811
     2020.45174       114.96324        14.68531
     2020.45448       109.37191        14.59153
     2020.45722       108.91859        15.76381
     2020.45995       106.07626        14.53912
     2020.46269       106.92193        14.64118
     2020.46543       109.21360        14.68531
     2020.46817       107.55227        14.88943
     2020.47091       115.43795        14.65221
     2020.47364       111.25862        14.58049
     2020.47638       116.24929        14.57498
     2020.47912       116.50196        14.78185
     2020.48186       113.13063        14.65221
     2020.48459       105.96231        14.85908
     2020.48733       104.36498        15.36110
     2020.49007       124.97965        14.69910
     2020.49281       126.31632        14.94735
     2020.49555       118.60099        14.91149
     2020.49828       115.22067        14.43706
     2020.50102       111.65334        14.58877
     2020.50376       103.95401        14.51981
     2020.50650       111.57068        14.40120
     2020.50924       113.14835        14.38189
     2020.51197       114.59103        14.39017
     2020.51745       117.96437        14.37914
     2020.52019       123.05904        14.85908
     2020.52292       123.62171        14.77909
     2020.52566       113.46539        14.95011
     2020.52840       119.23906        14.90322
     2020.53114       120.35973        14.71841
     2020.53388       123.24640        14.80943
     2020.53661       117.64707        14.82047
     2020.53935       123.03475        15.02182
     2020.54209       125.45242        14.79288
     2020.54483       118.11609        14.72117
     2020.54757       125.30476        14.66876
     2020.55030       124.00843        14.75703
     2020.55304       125.68511        14.93632
     2020.55578       131.62878        14.90598
     2020.55852       133.93145        14.72944
     2020.56125       118.98512        14.95838
     2020.56399       128.36479        14.67152
     2020.56673       122.86146        14.61635
     2020.56947       127.18814        14.67703
     2020.57221       124.79481        15.52936
     2020.57494       123.08748        14.86736
     2020.57768       121.34615        14.77358
     2020.58042       126.52282        14.86460
     2020.58316       120.81650        14.81771
     2020.58590       123.63217        14.93080
     2020.58863       128.98384        14.80943
     2020.59137       127.58451        14.82874
     2020.59411       127.20518        14.80116
     2020.59685       134.52586        15.30042
     2020.59958       121.85753        14.99148
     2020.60232       127.60120        14.76806
     2020.60506       124.38387        14.74875
     2020.60780       129.28754        14.96390
     2020.61054       129.35122        14.70186
     2020.61327       126.98789        14.71013
     2020.61601       126.00356        14.72117
     2020.61875       124.16023        14.85357
     2020.62149       125.52590        14.77082
     2020.62423       125.19658        15.13216
     2020.62696       118.49625        15.73623
     2020.62970       112.42392        15.51832
     2020.63244       127.03259        15.02734
     2020.63518       118.87526        15.18457
     2020.63791       109.25594        15.82450
     2020.64065       125.34261        14.88391
     2020.64339       117.80928        14.74599
     2020.64613       115.32695        14.93356
     2020.64887       122.96562        14.91701
     2020.65160       129.61830        14.63566
     2020.65434       130.06897        14.72117
     2020.65708       132.22664        14.64118
     2020.65982       121.77631        14.91149
     2020.66256       128.64698        14.84253
     2020.66529       130.18966        14.95011
     2020.66803       126.78633        14.95562
     2020.67077       129.91400        14.81495
     2020.67351       125.27867        14.74875
     2020.67624       127.90134        14.86460
     2020.67898       123.28802        14.93080
     2020.68172       126.08069        14.84805
     2020.68446       120.91536        15.31972
     2020.70910       116.92641        15.63693
     2020.71184       127.14208        15.11561
     2020.71457       129.61475        15.20387
     2020.71731       127.32042        15.02734
     2020.72005       126.08610        15.25628
     2020.72279       124.21377        14.80116
     2020.72553       128.75544        15.31972
     2020.72826       109.17511        15.53763
     2020.73100       118.07878        15.27007
     2020.73374       126.39146        15.17905
     2020.73648       120.70813        14.85908
     2020.73921       123.02680        15.02734
     2020.74195       128.00947        14.75151
     2020.74469       126.72214        14.84253
     2020.74743       129.46082        14.75427
     2020.75017       129.33249        14.77909
     2020.75290       126.76116        14.97493
     2020.75564       124.92383        14.67703
     2020.75838       126.32250        14.77909
     2020.76112       120.72118        14.86460
     2020.76386       122.77985        14.70186
     2020.76659       124.29852        14.72117
     2020.76933       117.72219        15.11009
     2020.77207       104.54686        14.86736
     2020.77481       118.54854        14.92253
     2020.77754       142.14721        14.67979
     2020.78028       121.83388        15.28387
     2020.78302       105.31055        15.28938
     2020.78576       112.03422        14.90598
     2020.78850       110.91190        14.78185
     2020.79123       116.22057        15.45212
     2020.79397       119.80624        15.29490
     2020.79671       100.20091        15.36110
     2020.79945       121.10158        14.92804
     2020.80219       117.14026        15.16526
     2020.80492       112.77993        14.80668
     2020.80766       114.48560        14.94459
     2020.81040       106.88227        15.04389
     2020.81314       126.58294        14.97493
     2020.81587       128.09161        14.69634
     2020.81861       117.93229        14.87012
     2020.82135       113.95096        14.85908
     2020.82409       118.38463        14.87839
     2020.82683       113.90030        14.86184
     2020.82956       101.32297        15.22870
     2020.83230       117.85565        15.00527
     2020.83504       128.63632        14.96114
     2020.83778       118.56499        14.72117
     2020.84052       110.10066        15.15422
     2020.84325        95.36233        15.72520
     2020.84599       123.59801        15.12940
     2020.84873       151.05268        14.48671
     2020.85147       137.73235        14.56118
     2020.85420       154.95802        14.52257
     2020.85694       145.49869        14.77358
     2020.85968       136.17237        14.99424
     2020.86242       152.18304        14.71013
     2020.86516       140.69271        15.09078
     2020.86789       129.88038        15.50453
     2020.87337       150.89773        26.58747
     2020.87611       154.85740        15.20663
     2020.87885       113.54407        15.59831
     2020.88158       125.95974        15.22870
     2020.88432       129.91441        14.90873
     2020.88706       141.69209        15.35558
     2020.88980       134.69176        14.98321
     2020.89253       115.09143        14.99976
     2020.89527       133.68710        15.37765
     2020.89801       121.63777        15.57901
     2020.90075       145.15245        14.74875
     2020.90349       145.66212        14.85081
     2020.90622       135.87279        14.81495
     2020.90896       110.87946        15.92931
     2020.91170       120.49913        15.44109
     2020.91444       113.66481        15.55418
     2020.91718       121.77248        15.26732
     2020.91991       111.85015        15.08527
     2020.92265       111.84482        15.49074
     2020.92539       114.13849        15.23697
     2020.92813       115.77117        15.19284
     2020.93086       112.96084        15.31421
     2020.93360       127.73751        15.52108
     2020.93634       101.45418        15.66727
     2020.93908       116.56885        15.52384
     2020.94182       116.70853        15.03562
     2020.94455       126.21120        14.80668
     2020.94729       122.12387        14.72668
     2020.95003       120.40554        15.43557
     2020.95277       123.28221        14.92804
     2020.95551       120.93989        15.17077
     2020.95824       128.51256        15.28662
     2020.96098       128.11923        14.82874
     2020.96372       128.33390        25.20004
     2020.96646       149.75857        15.39696
     2020.96919       122.57825        15.37213
     2021.48391        92.27058        14.95287
     2021.48665        94.01725        15.05217
     2021.48939        89.74292        15.28938
     2021.49212        91.41259        15.09630
     2021.49486        96.87327        15.04389
     2021.49760        88.84194        15.38316
     2021.50034        99.28961        15.09630
     2021.50308       101.02928        15.03010
     2021.50581        93.51495        15.14043
     2021.50855       105.07863        14.88115
     2021.51129       100.99530        14.98872
     2021.51403        90.45997        15.10182
     2021.51676        98.69964        14.86184
     2021.51950        99.43131        15.28111
     2021.52224        91.63698        15.19836
     2021.52498        96.29166        14.88115
     2021.52772        99.55833        14.84529
     2021.53045        99.85200        14.81771
     2021.53319       100.37867        14.92528
     2021.53593        94.94034        15.26180
     2021.53867       103.70602        15.76933
     2021.54141        96.42169        15.35558
     2021.54414        81.35636        15.23146
     2021.54688        94.17903        14.90598
     2021.54962        92.05570        15.11561
     2021.55236        97.05838        15.02458
     2021.55509        97.16605        15.32524
     2021.55783        91.90872        15.25904
     2021.56057       104.68939        14.83426
     2021.56331       102.72106        14.95011
     2021.56605        96.39174        15.00527
     2021.56878        99.98541        14.97217
     2021.57152        94.82108        15.06044
     2021.57426        89.06575        15.34731
     2021.57700       102.82042        15.40523
     2021.57974        95.49310        15.14595
     2021.58247        92.08377        14.83978
     2021.58521        96.68944        15.06044
     2021.58795        91.36411        15.28662
     2021.59069       100.25478        15.35558
     2021.59342        99.56646        14.99148
     2021.59616        84.86413        15.85760
     2021.59890        69.54580        15.69761
     2021.60164       108.09647        15.36386
     2021.60438       100.04914        14.95287
     2021.60711       103.34682        15.09906
     2021.60985       103.29249        15.06596
     2021.61259        95.10216        15.12664
     2021.61533        99.71583        14.99976
     2021.61807       100.86850        15.01355
     2021.62080        84.61718        15.09078
     2021.62354       105.85485        15.21767
     2021.62628       107.62852        14.99976
     2021.62902       101.93619        15.07699
     2021.63175        93.06686        15.29490
     2021.63449       100.79654        14.95838
     2021.63723       104.26721        15.65624
     2021.63997       105.32088        15.16526
     2021.64271        93.97055        15.28111
     2021.64544        98.38422        14.90873
     2021.64818        97.26490        14.96390
     2021.65092        97.20657        15.11285
     2021.65366        95.59424        14.96390
     2021.65639        99.43591        14.87288
     2021.65913        99.56658        14.89494
     2021.66187       102.13726        15.10457
     2021.66461        93.04593        14.99424
     2021.66735        97.89160        15.03562
     2021.67008       101.32127        15.14595
     2021.67282       105.24794        15.38592
     2021.67556        96.23762        15.75278
     2021.67830        96.07529        15.62314
     2021.68104        92.89196        15.09078
     2021.68377       107.21763        14.89770
     2021.68651        92.41930        15.25904
     2021.68925       100.20798        14.88943
     2021.69199       102.86565        15.05217
     2021.69472       113.67232        15.23697
     2021.69746        97.71799        14.98872
     2021.70020       101.23866        14.88943
     2021.70294        89.74234        14.95011
     2021.70568        87.62401        15.27835
     2021.70841       101.44368        15.04113
     2021.71115        87.27335        15.45488
     2021.71389       114.89002        15.29490
     2021.71663       119.91570        14.89770
     2021.71937       105.18137        15.04941
     2021.72210        99.41904        14.94459
     2021.72484        98.08671        14.95287
     2021.72758       101.31438        16.08102
     2021.73032        99.14606        15.78864
     2021.73305       109.38973        14.91977
     2021.73579        91.60540        15.24249
     2021.73853       104.82107        15.73347
     2021.74127       122.08774        14.98872
     2021.74401       107.51342        15.03010
     2021.74674        97.25309        15.39696
     2021.74948       103.25276        14.98872
     2021.75222       103.61443        15.06872
     2021.75496        93.97710        15.60659
     2021.75770       101.16477        15.10733
     2021.76043       102.07545        15.59004
     2021.76317       111.06112        15.02734
     2021.76591       126.92479        14.80392
     2021.76865       104.92646        15.03562
     2021.77138       102.98213        15.01631
     2021.77412        84.55781        15.56797
     2021.77686       115.78448        15.00252
     2021.77960       109.72515        14.96666
     2021.78234       107.03482        15.00803
     2021.78507       114.56349        14.89770
     2021.78781        97.74617        14.98045
     2021.79055        93.47384        15.17077
     2021.79329       100.87851        15.13216
     2021.79603       104.44818        15.06320
     2021.79876       103.43685        15.02458
     2021.80150       106.36953        15.50729
     2021.80424        94.34120        15.46591
     2021.80698       107.53987        15.01079
     2021.80971       104.08354        14.93080
     2021.82067       138.62023        15.40523
     2021.82340       110.31290        15.66451
     2021.82614       105.05357        15.51832
     2021.82888       103.84825        15.27283
     2021.83162       107.98292        15.23973
     2021.83436       102.62759        15.40523
     2021.83709       103.18126        15.41351
     2021.83983        78.07593        15.64521
     2021.84257       104.62761        15.61211
     2021.84531       134.12028        15.25077
     2021.84804       138.59195        14.93356
     2021.85078       128.38962        15.14319
     2021.85352       130.32829        14.88115
     2021.85626       126.35197        15.20663
     2021.85900       131.62164        14.79564
     2021.86173       114.75731        15.44109
     2021.86447        83.56098        15.70865
     2021.86721        88.37365        15.75830
     2021.86995        87.30333        16.36513
     2021.87269        97.59100        15.73899
     2021.87542       118.56867        15.33076
     2021.87816       118.90234        14.82047
     2021.88090        96.14101        15.15422
     2021.88364       112.46069        14.97217
     2021.88637       120.30336        14.95287
     2021.88911       109.77603        14.98045
     2021.89185        85.57170        15.20939
     2021.89459        95.02737        15.16526
     2021.89733       103.54205        14.88391
     2021.90006        86.75172        15.45488
     2021.90280        93.09939        16.11136
     2021.90554        91.28306        15.30042
     2021.90828        92.55873        15.75554
     2021.91102        95.63441        15.58452
     2021.91375        89.10408        15.71692
     2021.91923        81.63942        15.99000
     2021.92197        88.35009        16.24376
     2021.92470        75.89977        15.63141
     2021.92744        97.99344        15.66176
     2021.93018        89.95711        15.57625
     2021.93292       116.04078        15.92104
     2021.93566       127.36245        15.91276
     2021.93839       134.90713        15.58176
     2021.94113       149.10580        15.69761
     2021.94387       128.87947        15.37489
     2021.94661       112.70014        15.26732
     2021.94935       141.18481        15.12388
     2021.95208       147.50949        15.17353
     2021.95482       152.62816        15.51832
     2021.96030       152.00850        15.49350
     2021.96303       141.54317        15.80519
     2021.96577       148.48285        15.43281
     2021.96851       131.50552        15.74451
     2021.97125       153.40319        15.59556
     2021.97399       141.51586        15.63969
     2021.97672       153.05253        15.72796
     2021.97946       151.65421        15.65348
     2021.98220       150.23488        15.51005
     2021.98494       159.22555        15.63693
     2021.98767       155.76422        15.34179
     2021.99041       155.60389        15.16526
     2022.03422       134.56064        17.76911
     2022.03696       131.07132        18.22424
     2022.03969       114.52999        17.98978
     2022.04517       119.23833        17.91255
     2022.04791       104.80000        18.68764
     2022.05065       117.12268        17.79118
     2022.05338       112.27735        17.84359
     2022.05612        98.69202        18.21045
     2022.05886        85.80469        17.94840
     2022.06160        84.51636        17.65051
     2022.06433        85.50004        17.78842
     2022.06707        85.06071        17.78291
     2022.06981       100.49538        17.29744
     2022.07255        95.68905        16.53063
     2022.07529       106.46872        16.53339
     2022.07802       117.98840        16.35134
     2022.08076       106.54407        16.48098
     2022.08350       106.97274        18.10563
     2022.08624       121.25841        19.58133
     2022.49524        61.27648        32.97023
     2022.49692        76.86221        15.15974
     2022.49965        70.08588        15.54866
     2022.50239        61.41055        15.37765
     2022.50513        82.79422        15.93207
     2022.50787        82.98790        16.00379
     2022.51060        75.89457        15.30869
     2022.51334        78.54224        15.19284
     2022.51608        70.41391        15.35007
     2022.51882        75.49958        15.36110
     2022.52156        81.88226        15.91276
     2022.52429        85.57493        15.16250
     2022.52703        95.21660        14.93632
     2022.52977        96.46127        15.15698
     2022.53251       100.32594        15.17077
     2022.53525        84.45562        15.59004
     2022.53798        77.43829        15.55970
     2022.54072        91.25996        14.77082
     2022.54346        99.81663        14.74048
     2022.54620        95.95830        14.94735
     2022.54893        98.55698        14.98321
     2022.55167        96.04565        15.44109
     2022.55441       101.87632        14.87288
     2022.55715       107.06599        14.83426
     2022.55989        99.80966        14.91425
     2022.56262        97.78434        14.88115
     2022.56536        87.93801        14.81495
     2022.56810        90.28468        14.93080
     2022.57084        98.64235        14.71013
     2022.57357        98.86802        15.21767
     2022.57631        97.68770        14.90322
     2022.57905        83.65037        14.67428
     2022.58179        80.91204        14.88667
     2022.58453       113.69471        15.64796
     2022.58726        97.53838        15.06596
     2022.59000        89.48206        15.84105
     2022.59274        91.37873        14.67152
     2022.59548        97.07940        14.79564
     2022.59822        91.56207        14.77358
     2022.60095        84.51874        15.15698
     2022.60369        90.44142        14.91701
     2022.60643        90.27509        15.14043
     2022.60917        95.39976        15.48522
     2022.61190        97.55443        15.38592
     2022.61464       105.14210        15.03837
     2022.61738       105.23378        14.74048
     2022.62012        97.09845        14.53912
     2022.62286       103.74112        14.74599
     2022.62559       100.11979        15.00527
     2022.62833       101.25646        14.58049
     2022.63107       105.54614        14.64393
     2022.63381       105.09681        14.95562
     2022.63655       100.33548        15.02458
     2022.63928        99.19315        14.92528
     2022.64202       107.44182        15.84932
     2022.64476       113.56950        15.86587
     2022.64750       111.89617        15.26732
     2022.65023       110.86084        15.11285
     2022.65297       108.57251        15.36110
     2022.65571       104.42518        15.19560
     2022.65845       108.98386        14.73772
     2022.66119       112.18053        14.65773
     2022.66392       105.71820        15.03286
     2022.66666       107.85487        14.58325
     2022.66940       109.36054        14.59980
     2022.67214       110.90022        14.50602
     2022.67488       102.66789        15.13492
     2022.67761       106.15556        14.75427
     2022.68035       111.21323        14.55843
     2022.68309       102.63190        14.88943
     2022.68583       104.31858        15.30317
     2022.68856       111.68325        14.91425
     2022.69130       112.55792        14.87012
     2022.69404       114.59859        15.00527
     2022.69678       103.70526        15.39971
     2022.69952        95.99394        15.45212
     2022.70225       112.53461        15.33076
     2022.70499       110.77428        15.20112
     2022.70773       109.71195        15.01631
     2022.71047       110.53262        14.63566
     2022.71321       117.73830        14.73772
     2022.71594       113.77097        14.75703
     2022.71868       109.97764        14.59153
