# ================= DQRFIT RESULTS ================
# INPUT FILE: series/PNHR.rad
# OUTPUT: LDETRENDED
# FILTER FUNCTION: f(t)
# f(t)=+line(t)+annual(t)+jumps(t)
# line(t)=+P 1+P 2*t
# annual(t)=+P 3*sin(2*pi*t+P 4)
# jumps(t)=+P 5*heav(t-2014.5000  )
# heav(t)=(t<0?0:1)
# TOTAL OBSERVATIONS MTOT=  843
# INITIAL TIME INTERVAL= 2015.7591 - 2012.6845 =  3.0746
# TOTAL OBSERVATIONS AFTER PREFILTER M=  834
# TIME-SPAN= 2015.7591 - 2012.6845 =  3.0746
# OBSERVATIONS: USED M=   834 REJECTED MTOT-M=     9 %USED=   98.9324
# N=  5 PARAMETERS
# MAXSIG= 175.00000
# MAXRES=  32.80080
# SCALE FACTOR FOR LENGTHS: SCL=  10.00000
# SCALE FACTOR FOR SIGMAS: SCLSIG=   1.00000
# CHI^2=   2702.898 DOF=   829 CHI^2/DOF=   3.26043
# RMS=     11.129 SDEV=     11.127 MEAN=   -0.44548
#  P #       PARAMETER +-    SIGMA %error PARAMETER NAME
# P 1 =      2910.81242 +- 1858.487  63.85 YZERO                              
# P 2 =        -1.44422 +-    0.923  63.91 SLOPE                              
# P 3 =        14.01292 +-    0.561   4.00 ANNUAL AMPLITUDE                   
# P 4 =        -3.11563 +-    0.057   1.82 ANNUAL PHASE                       
# P 5 =       -37.19514 +-    1.705   4.58 OFFSET 2014.5000                   
#       T            LDETRENDED       SIG_OBS
     2012.68446        10.08981         9.87700
     2012.68720        13.95477         9.88964
     2012.68993        17.70772        10.03409
     2012.69267        11.72668        10.29772
     2012.69541         9.33863        10.21285
     2012.69815         9.47058        10.12437
     2012.70089         9.76854         9.96006
     2012.70362         6.58649        10.01242
     2012.70636        12.68545         9.89686
     2012.70910         7.68940         9.91491
     2012.71184        11.98035         9.81560
     2012.71457        14.53931         9.96367
     2012.71731        18.88426         9.87519
     2012.72005        18.28222         9.75421
     2012.72279        15.35017         9.74699
     2012.72553        12.71412         9.76324
     2012.72826        14.09308         9.86436
     2012.73100        17.27003        10.00700
     2012.73374        14.05099        10.19479
     2012.73648        12.90094         9.95464
     2012.73921        15.90289         9.99436
     2012.74195        16.24485         9.99978
     2012.74469        30.98180         9.89686
     2012.74743        13.07076         9.82644
     2012.75017        12.64071         9.90227
     2012.75290        10.65767         9.89686
     2012.75564        13.38462         9.82644
     2012.75838        11.78657         9.89686
     2012.76112        11.77453         9.92033
     2012.76386        14.17948         9.71449
     2012.76659        16.50444        10.05215
     2012.76933        16.94139         9.94561
     2012.77207        18.28734         9.97089
     2012.77481         8.04130         9.92755
     2012.77754        10.22425         9.97811
     2012.78028         0.39821        10.28146
     2012.78302         4.59716        10.26160
     2012.78576        -6.44289        10.40064
     2012.78850        10.08807        10.11715
     2012.79123        15.34502        10.48551
     2012.79397        12.15398         9.92936
     2012.79671        15.37793         9.97811
     2012.79945        -5.07212        10.28327
     2012.80219        11.53584        10.14785
     2012.80492        19.61079        10.02506
     2012.80766        35.12975         9.95825
     2012.81040        34.70170         9.91130
     2012.81314        24.48565         9.98714
     2012.81587        23.40061        10.04673
     2012.81861        18.07456        10.20924
     2012.82135        16.01752        10.25619
     2012.82409         2.43347        10.55593
     2012.82683       -12.30258        10.42592
     2012.82956        -3.78762        10.58662
     2012.83230        14.90233        10.09006
     2012.83504        19.97229        10.05576
     2012.83778        18.80124        10.43495
     2012.84052        -0.00681        10.56495
     2012.84325         2.97615        10.22910
     2012.84599         4.16010        10.63718
     2012.84873       -10.38094        10.44397
     2012.85147        12.18101        10.21466
     2012.85420        11.63797         9.86797
     2012.85694        11.36192         9.90950
     2012.85968         9.96587        10.10632
     2012.86242        11.78083         9.94019
     2012.86516        18.22178        10.09909
     2012.86789        18.52574        10.30674
     2012.87063        22.68569         9.87880
     2012.87337        16.72164        10.08465
     2012.87611         3.55060        10.03770
     2012.87885        15.40555         9.91672
     2012.88158        16.52551         9.94019
     2012.88432        19.41246        10.39342
     2012.88706        14.48341        10.64982
     2012.88980         5.93937        10.51620
     2012.89253         5.46732        10.26702
     2012.89527         6.81528        10.41870
     2012.89801         2.48323        10.26883
     2012.90075         8.79918        10.22188
     2012.90349        15.98714        10.26702
     2012.90622         8.03809        10.31758
     2012.90896        -2.68395        10.37355
     2012.91170         0.99200        10.47828
     2012.91444        14.46295        10.31036
     2012.91718         7.52091        10.41689
     2012.91991        17.59786        10.32480
     2012.92265        -5.77218        10.59385
     2012.92539        -7.30123        10.47467
     2012.92813        -9.95928        10.30313
     2012.93086       -15.58532        10.46384
     2012.93360       -12.68037        10.78163
     2012.93634        -4.33841        11.44431
     2012.93908        -1.72146        11.58516
     2012.94182         5.82549        11.32333
     2012.94455        24.76745        11.27278
     2012.94729        23.95740        11.30347
     2012.95003        18.07736        11.26916
     2012.95277        25.76431        11.00554
     2012.95551        22.54826        10.82316
     2012.95824         4.44622        10.89900
     2012.96098        12.85817        11.72239
     2012.96372         9.92013        12.87982
     2012.96646         9.06308        11.96435
     2012.96919        11.94204        11.56168
     2012.97193        16.23599        11.40098
     2012.97467        22.44694        11.23125
     2012.97741        17.32090        11.10485
     2012.98015         7.17985        10.89720
     2012.98288         1.50881        10.91887
     2012.98562         0.18376        10.86289
     2012.98836        -0.91929        10.83942
     2012.99110        -0.54733        10.75274
     2012.99384         2.26162        10.75094
     2012.99657         8.30958        10.95678
     2012.99931        15.15253        10.95678
     2013.00205        22.60348        10.89900
     2013.00479        -0.53156        10.80330
     2013.00752       -15.05661        10.82316
     2013.01026        -2.46765        10.69496
     2013.01300         0.12230        11.02540
     2013.01574        12.33725        10.75636
     2013.20508        -5.92230        12.97552
     2013.20739         1.60904        11.12652
     2013.21013        -4.24001        10.93873
     2013.21286       -16.15005        10.96581
     2013.21560         8.46390        11.23486
     2013.21834         0.40085        11.18069
     2013.22108       -14.07919        11.24027
     2013.22381       -18.35124        11.32695
     2013.22655       -20.36428        11.33056
     2013.22929       -20.20433        11.42084
     2013.23203       -17.50338        11.30167
     2013.23477       -15.29842        11.27458
     2013.23750       -10.39447        11.67183
     2013.24024       -11.99451        13.19220
     2013.24298       -21.21956        11.84517
     2013.24572       -17.70661        14.10587
     2013.24846       -19.27065        11.48946
     2013.25119       -15.77670        11.39014
     2013.27583       -18.54611        12.44285
     2013.28172       -16.22261        20.93309
     2013.28722       -21.91566        29.27708
     2013.29518       -23.83817        28.18465
     2013.33701       -19.87876        21.40618
     2013.37267        -2.74926        19.40189
     2013.37440        -6.78677        10.44939
     2013.37713        -4.11981        10.62274
     2013.37987        -6.68286        10.49814
     2013.38261       -16.90290        10.70760
     2013.38535       -15.23795        11.16624
     2013.38809         2.59900        10.48731
     2013.39082        -3.63004        10.51981
     2013.39356         0.76791        10.43675
     2013.39630         1.07787        10.44397
     2013.39904       -13.58418        10.38258
     2013.40177        -3.55522        10.48189
     2013.40451         0.87873        10.48912
     2013.40725        -0.62132        10.44397
     2013.40999         4.99064        10.77622
     2013.41273        -0.91741        10.71302
     2013.41546        -7.21745        11.08860
     2013.41820        -8.74750        10.50356
     2013.42094        -6.28655        10.38800
     2013.42368       -12.12059        10.60829
     2013.42642         1.87336        10.37717
     2013.42915         1.77132        10.25077
     2013.43189       -11.08473        10.30133
     2013.43463       -15.78978        10.12618
     2013.43737        -5.43882        10.16771
     2013.44010        -4.03187        10.04131
     2013.44284         1.10809        10.06478
     2013.44558         4.99004        10.46384
     2013.44832         2.72599        10.68413
     2013.45106        -5.78805         9.95103
     2013.45379        -4.93210        10.07201
     2013.45653        -8.77314         9.91491
     2013.45927        -7.73619         9.98895
     2013.46201        -4.57224         9.92033
     2013.46475        -1.06628         9.90769
     2013.46748         1.54767         9.97992
     2013.47022         0.10163        10.20202
     2013.47296        -2.83242         9.76143
     2013.47570        -2.85847         9.74518
     2013.47843         8.09349         9.94381
     2013.48117        -8.99056         9.98353
     2013.48391       -13.46660        10.15507
     2013.48665       -12.60965        10.03409
     2013.48939       -19.79370        10.03770
     2013.49212       -11.69374        10.07562
     2013.49486        -0.16679         9.91491
     2013.49760        -3.19083        10.40244
     2013.50034        -8.62888        10.18396
     2013.50308         0.63008         9.78491
     2013.50581         2.87903         9.82102
     2013.50855        10.00698         9.74879
     2013.51129         5.16994         9.80838
     2013.51403         4.98289         9.84810
     2013.51676        12.45985         9.82102
     2013.51950        -0.03120         9.84269
     2013.52224        -0.39925         9.95825
     2013.52498         5.05971        10.17493
     2013.52772         6.06766         9.81199
     2013.53045         3.32162         9.78310
     2013.53319         7.38057         9.88783
     2013.53593         5.94752         9.97631
     2013.53867        -5.41152         9.93478
     2013.54141        -1.55957        10.13340
     2013.54414         6.85739         9.97992
     2013.54688         3.11334         9.94922
     2013.54962         7.33129         9.79393
     2013.55236        11.63925         9.83366
     2013.55509         4.37220         9.82824
     2013.55783         7.85916         9.96728
     2013.56057         4.51111        10.03589
     2013.56331         5.09806        10.12257
     2013.56605         5.38102         9.95464
     2013.56878         8.83697         9.98172
     2013.57152        19.82793         9.80838
     2013.57426         7.42788         9.85352
     2013.57700        11.90483         9.98895
     2013.57974         5.15479         9.94200
     2013.58247         9.91874         9.95283
     2013.58521        15.54870         9.96908
     2013.58795         6.45165         9.78852
     2013.59069         9.35960         9.81019
     2013.59342         8.16656        10.08104
     2013.59616        12.35251         9.91130
     2013.59890        12.53247        10.00700
     2013.60164        13.24642         9.96547
     2013.60438        12.79937         9.87519
     2013.60711        14.28333         9.97450
     2013.60985         9.06328         9.94742
     2013.61259         2.37224        10.04131
     2013.61533         9.61719        10.06659
     2013.61807         6.69815        10.16951
     2013.62080        -0.75090        10.16951
     2013.62354         0.81205        10.06478
     2013.62628        13.84801        10.23993
     2013.62902        13.06996        10.07020
     2013.63175        -9.04608         9.81741
     2013.63449         5.60087         9.98353
     2013.63723        12.18882         9.93839
     2013.63997        20.23678        10.09548
     2013.64271         8.68473         9.84630
     2013.64544         5.63669        10.03048
     2013.64818         4.93964         9.90047
     2013.65092         9.12359         9.88422
     2013.65366        -4.39045        10.20563
     2013.65639         6.74650        10.16951
     2013.65913         4.62646        10.18576
     2013.66187         7.65941        10.20563
     2013.66461         9.75136         9.79935
     2013.66735         2.33732        10.27785
     2013.67008        10.34527        10.20563
     2013.67282        17.76223        10.21285
     2013.67556         9.89818        10.25438
     2013.67830        17.07713        10.18035
     2013.68104        12.42009         9.86616
     2013.68377        11.27804         9.81560
     2013.68651         9.75400         9.79935
     2013.68925        15.40295         9.78852
     2013.69199         9.72690         9.83005
     2013.69472        10.60086         9.87519
     2013.69746         7.53481         9.91853
     2013.70020        15.47277         9.91311
     2013.70294        14.35172         9.83547
     2013.70568        16.76467         9.92394
     2013.70841        15.45163        10.09187
     2013.71115        14.34258         9.84630
     2013.71389         9.62954        10.09368
     2013.71663        13.56049         9.80657
     2013.71937         6.69545        10.08284
     2013.72210        22.61540         9.89325
     2013.72484        20.88335        10.03228
     2013.72758        17.97331        10.46564
     2013.73032        26.68726        10.06478
     2013.73305        25.75922         9.88964
     2013.73579         6.89917         9.77588
     2013.73853        12.80112         9.96908
     2013.74127        -9.74192        10.10270
     2013.74401        26.87503        10.25980
     2013.74674        21.71999        10.17312
     2013.74948         8.79394        10.10812
     2013.75222        14.29489        10.25980
     2013.75496        13.75385        10.02687
     2013.75770         3.32380         9.84088
     2013.76043         0.82376        10.08284
     2013.76317        -5.09529         9.98534
     2013.76591        -1.15034        10.63538
     2013.76865        19.13962        10.02325
     2013.77138         9.52757        10.07381
     2013.77412        12.87953        10.17854
     2013.77686         4.36248         9.97450
     2013.77960         9.36343        10.12618
     2013.78234        -1.96961        10.10632
     2013.78507        -1.70766         9.96367
     2013.78781        -0.25670        10.33744
     2013.79055         7.15625        10.24896
     2013.79329         2.38820        10.19660
     2013.79603         5.82916        10.01964
     2013.79876         2.96711         9.85172
     2013.80150         4.62907        10.08465
     2013.80424         4.56102        10.14965
     2013.80698         3.20397         9.94742
     2013.80971         7.48393         9.87338
     2013.81245        11.62788         9.83185
     2013.81519         2.63284         9.80477
     2013.81793         4.81979         9.89144
     2013.82067         3.39774        10.04312
     2013.82340        10.52170         9.87338
     2013.82614         7.90165        10.28146
     2013.82888         8.43761        10.06117
     2013.83162        -0.98544        10.40064
     2013.83436         3.03752        10.24716
     2013.83709         6.78747        10.27785
     2013.83983        30.82442         9.96006
     2013.84257        29.10938         9.86255
     2013.84531        17.65833        10.10812
     2013.84804         6.57629         9.98353
     2013.85078        -4.80076        10.20743
     2013.85352        21.46619         9.94200
     2013.85626        18.20215         9.94561
     2013.85900        -2.21690        10.19118
     2013.86173        -6.99194         9.99798
     2013.86447       -15.43799        10.23632
     2013.86721         2.72496        10.08104
     2013.86995         0.86092         9.86797
     2013.87269        13.33287         9.98172
     2013.87542        15.05583         9.92575
     2013.87816        12.91778        10.10090
     2013.88090        28.05173        10.22007
     2013.88364        29.58469        10.67691
     2013.88637        21.96164        10.01242
     2013.88911        -2.67840        10.07742
     2013.89185        -7.03545        10.09909
     2013.89459        -2.19250        10.02687
     2013.89733         5.67246        10.10812
     2013.90006         6.73641        10.11895
     2013.90280        -3.90763        10.07201
     2013.90554         0.65232        10.02506
     2013.90828         6.82727        10.09548
     2013.91102        -1.30177        10.02687
     2013.91375        -2.94482        10.05937
     2013.91649        10.67114        10.52884
     2013.91923        11.29609        10.95678
     2013.92197        23.64704        10.25077
     2013.92470        21.32500        10.09006
     2013.92744         7.68995        10.19118
     2013.93018        15.30191         9.95103
     2013.93292         9.43786         9.92214
     2013.93566        10.56382         9.93658
     2013.93839         8.13977        10.01423
     2013.94113        -2.68428        10.01242
     2013.94387         2.44968         9.98534
     2013.94661        -6.14337        10.26341
     2013.94935         5.47559         9.97089
     2013.95208         1.82154        10.10090
     2013.95482        -8.97151        10.40064
     2013.95756         0.87145        10.08645
     2013.96030         2.90240        10.06298
     2013.96303         4.62236        10.12257
     2013.96577        10.68131         9.84088
     2013.96851         9.12026        10.16771
     2013.97125        14.94322        10.13701
     2013.97399         4.74417        10.21646
     2013.97672         3.41213        10.14423
     2013.97946        -0.86192        10.13701
     2013.98220        -0.57997        10.11173
     2013.98494        -7.23001        10.14604
     2013.98767       -10.63406        10.12798
     2013.99041        -4.05010        10.00700
     2013.99315        -7.89415         9.96908
     2013.99589        -3.73420        10.16590
     2013.99863         4.69176        10.36633
     2014.00410       -25.08333        10.37717
     2014.00684         6.48362        10.37717
     2014.00958         4.21557        10.16410
     2014.01232        -2.04347        10.30313
     2014.01505        -0.02752        10.33202
     2014.01779         7.41744        10.35550
     2014.02053        14.61539        10.11534
     2014.02327        16.42934        10.74010
     2014.02600         7.02430        10.72566
     2014.02874         7.08025        10.32661
     2014.03148        12.92821        10.38439
     2014.03422         7.54716        10.68232
     2014.03696        -6.68589        10.46023
     2014.03969        -6.35293        10.53426
     2014.04243        -0.29898        10.89539
     2014.04517         2.71898        10.78163
     2014.04791        -4.75607        10.35008
     2014.05065        -5.60811        10.53065
     2014.05338        -6.34616        10.41508
     2014.05612        -3.75421        10.22188
     2014.05886        -3.99325        10.29772
     2014.06160         0.12070        10.28327
     2014.06433        -2.39334        10.54690
     2014.06707        -0.58639        10.50356
     2014.06981         2.78156        10.40967
     2014.07255        -0.42748        10.35189
     2014.07529        -1.30953        10.38258
     2014.07802        10.93143        10.49092
     2014.08076        25.67138        10.42050
     2014.08350        18.18033        10.26883
     2014.08624        21.05929        10.40606
     2014.08898        16.88424        10.82858
     2014.09171        21.01420        10.73469
     2014.09445        16.90615        10.33022
     2014.09719        14.23010        10.37355
     2014.09993        19.60106        10.23632
     2014.10266        -8.04999        10.52523
     2014.10540         5.79297        10.20382
     2014.10814         6.39392        10.38980
     2014.11088         4.91287        10.93873
     2014.11362         1.16783        10.45120
     2014.11635         2.54278        10.47287
     2014.11909       -12.65626        10.38258
     2014.12183         0.39069        10.55051
     2014.12457         0.02164        10.29952
     2014.12731        17.40760        10.95678
     2014.13004        10.94355        11.11207
     2014.13278         1.87351        11.70614
     2014.13552         3.53046        12.74078
     2014.13826        -6.33859        12.91954
     2014.14099         8.34537        12.89065
     2014.14373        -7.95968        12.53494
     2014.14647        -7.61272        12.94663
     2014.14921       -13.84777        13.00622
     2014.15195        -8.70681        12.98635
     2014.15468       -20.96686        12.91052
     2014.15742       -15.83991        12.93218
     2014.16016       -11.00895        13.26081
     2014.16564       -11.87904        12.90149
     2014.16837       -23.59809        13.11636
     2014.17111       -16.91414        12.74981
     2014.17385       -34.73218        13.53889
     2014.17659       -41.81623        13.22290
     2014.17932       -39.12227        13.91266
     2014.18206       -55.43332        13.36915
     2014.18480       -48.85637        12.56202
     2014.19028       -37.00046        13.65987
     2014.19301       -44.48150        13.54430
     2014.19575       -26.89555        13.26443
     2014.19849       -38.77660        13.52264
     2014.20123       -59.91464        13.32943
     2014.20397       -56.76769        13.23554
     2014.20670       -59.37173        14.19434
     2014.20944       -61.69978        14.55006
     2014.22861       -66.87810        13.76098
     2014.23134       -70.20015        15.41859
     2014.23408       -60.40519        14.18351
     2014.23682       -69.21524        15.12065
     2014.65297       -18.57522         9.98534
     2014.65571       -30.14527         9.94019
     2014.65845       -25.08732         9.98895
     2014.66119       -41.42536        10.37355
     2014.66392       -28.59341        10.12618
     2014.66666       -24.54845         9.98534
     2014.66940       -21.75250         9.93658
     2014.67214       -24.38655        10.29772
     2014.67488       -30.14859        10.03770
     2014.67761       -26.83364         9.88602
     2014.68035       -27.27668         9.83005
     2014.68309       -26.14173         9.95103
     2014.68583       -26.28877         9.96006
     2014.68856       -28.03082         9.94381
     2014.69130       -35.54887        10.06840
     2014.69404       -27.43091        10.02867
     2014.69678       -33.37596        10.20021
     2014.69952       -23.50500         9.93658
     2014.70225       -25.38905         9.87158
     2014.70499       -33.25810         9.88964
     2014.70773       -23.73714        10.01423
     2014.71047       -30.26319        10.21285
     2014.71321       -26.74023         9.81019
     2014.71594       -29.61528         9.91491
     2014.71868       -24.83233         9.87880
     2014.72142       -24.59437         9.88241
     2014.72416       -33.72542        10.17854
     2014.72689       -46.89346         9.99436
     2014.72963       -17.97951        10.01061
     2014.73237       -20.11956        10.21104
     2014.73511       -25.46460        10.01964
     2014.73785       -31.10565         9.99617
     2014.74058       -28.53369        10.03951
     2014.74332       -26.58674         9.82644
     2014.74606       -18.28079        10.07201
     2014.74880       -20.82683        10.24174
     2014.75154       -30.95388        10.69857
     2014.75427       -22.16192        10.03770
     2014.75701       -23.59997        10.15146
     2014.75975       -24.00002        10.02325
     2014.76249       -17.61206        10.03589
     2014.76522       -22.91011        10.02867
     2014.76796       -19.87115         9.94381
     2014.77070       -30.84320         9.88602
     2014.77344       -27.59925         9.91311
     2014.77618       -31.28429        10.96220
     2014.77891       -26.66834        10.09909
     2014.78165       -38.92038        10.20563
     2014.78439       -20.43843        10.80150
     2014.78713       -16.86448        10.15507
     2014.78987       -13.09052        10.04853
     2014.79260       -38.94057        10.25257
     2014.79534       -29.65161        10.24535
     2014.79808       -22.97366        10.32661
     2014.80082       -31.94370         9.96728
     2014.80355       -16.92775        10.65524
     2014.80629       -34.66180        10.51801
     2014.80903        -5.80884        10.18215
     2014.81177         0.24111        10.17312
     2014.81451       -14.95893        10.14965
     2014.81724        -1.47998        10.12257
     2014.81998        -5.31403         9.92575
     2014.82272       -25.27707        10.40786
     2014.82546       -30.04212        10.44397
     2014.82820       -37.38816        10.23091
     2014.83093       -18.10821        10.20924
     2014.83367        -8.54826        10.09729
     2014.83641       -22.90230        10.18757
     2014.83915        -9.55235        10.16771
     2014.84188       -34.37339        10.75455
     2014.84462       -42.31544        10.49814
     2014.84736       -30.32649        10.57037
     2014.85010       -28.67353        10.31397
     2014.85284       -28.25458        10.10090
     2014.85557       -41.88062        10.61551
     2014.85831       -19.81367        10.12437
     2014.86105       -30.88772         9.88422
     2014.86379       -34.44676        10.01423
     2014.86653       -33.55181         9.86616
     2014.86926       -29.48385         9.94561
     2014.87200       -26.93090        10.08826
     2014.87474       -28.91795         9.90950
     2014.87748       -29.49399        10.10270
     2014.88021       -24.49904        10.05034
     2014.88295       -23.43408        10.18035
     2014.88569       -20.76613        10.36091
     2014.88843        -4.40618        10.72566
     2014.89117       -17.86722        10.87914
     2014.89390       -19.27827        10.49634
     2014.89664        -8.30031        10.47287
     2014.89938       -41.35036        10.77622
     2014.90212       -48.30840        10.72024
     2014.90485       -29.42045        10.50356
     2014.90759       -18.92750        10.29230
     2014.91033       -23.65754        10.25077
     2014.91307       -11.87559        10.09548
     2014.91581       -27.74563        10.15146
     2014.91854       -36.15268        10.18576
     2014.92128       -34.31873        10.17312
     2014.92402       -18.38577        10.23813
     2014.92676       -22.67982        10.45120
     2014.92950       -23.60686        10.32480
     2014.93223       -18.13491        10.33022
     2014.93497       -50.67996        10.72385
     2014.93771       -51.66600        10.99470
     2014.94045       -30.63905        10.65885
     2014.94318       -12.82809        10.69496
     2014.94592       -37.25314        10.79066
     2014.94866       -32.42619        10.28869
     2014.95140       -13.83323         9.90769
     2014.95414       -19.38128         9.94200
     2014.95687        -8.14832        10.03048
     2014.95961        -7.25337        10.31938
     2014.96235       -21.51142        10.12798
     2014.96509       -17.55046        10.51259
     2014.96783       -36.02451        10.32119
     2014.97056       -37.00855        10.64621
     2014.97330       -43.44660        10.17312
     2014.97604       -57.60165        10.24716
     2014.97878       -27.18469        10.44036
     2014.98151       -20.00374        10.98748
     2014.98425       -35.87678        10.58301
     2014.98699       -51.55883        10.54509
     2014.98973       -46.92088        10.77622
     2014.99247       -38.10692        10.72927
     2014.99520       -53.64997        10.81053
     2014.99794       -37.18701        11.16805
     2015.00068       -45.23906        10.87553
     2015.00342       -48.37911        11.03443
     2015.00616       -50.62115        10.78525
     2015.00889       -45.66720        10.82316
     2015.01163       -72.93324        12.15394
     2015.01437       -59.38529        10.90261
     2015.01711       -48.93233        11.03623
     2015.01984       -37.95138        10.85567
     2015.02258       -35.75243        10.98387
     2015.02532       -38.25347        10.87914
     2015.02806       -25.71352        10.64440
     2015.03080       -23.12256        10.64260
     2015.03353       -46.96261        10.65885
     2015.03627       -42.24666        10.84122
     2015.03901       -42.48070        10.79789
     2015.04175       -27.12775        10.66607
     2015.04449       -48.75379        10.89539
     2015.04722       -42.61584        11.09221
     2015.04996       -43.46089        10.78344
     2015.05270       -51.65593        10.65704
     2015.05544       -51.59898        10.54870
     2015.05817       -44.65102        10.62996
     2015.06091       -56.72207        10.75997
     2015.06365       -60.96112        11.04165
     2015.06639       -52.52416        10.74913
     2015.06913       -51.86821        10.76719
     2015.07186       -51.58325        10.37717
     2015.07460       -42.30030        10.47648
     2015.07734       -49.89535        10.44578
     2015.08008       -46.70739        10.64621
     2015.08282       -48.33044        10.43675
     2015.08555       -51.44748        10.32300
     2015.08829       -39.97853        10.59746
     2015.09103       -31.70258        10.32661
     2015.09377       -51.46462        10.56315
     2015.09650       -43.22167        10.76538
     2015.09924       -28.69971        10.93873
     2015.10198       -22.94276        11.09582
     2015.10472       -39.96881        10.92428
     2015.10746       -48.14085        11.02901
     2015.11019       -47.88090        11.03804
     2015.11293       -51.41494        11.18249
     2015.11567       -59.95099        11.08679
     2015.11841       -59.94003        10.93512
     2015.12115       -54.32108        10.73649
     2015.12388       -56.53913        10.93873
     2015.12662       -56.88217        10.74552
     2015.12936       -59.82622        10.93692
     2015.13210       -56.17726        10.79247
     2015.13483       -60.29831        10.89900
     2015.13757       -47.44936        10.80330
     2015.14031       -47.38240        10.49814
     2015.14305       -51.76745        10.62815
     2015.14579       -52.51149        10.97123
     2015.14852       -55.08054        10.77802
     2015.15126       -56.80959        10.89720
     2015.15400       -49.89663        10.75455
     2015.15674       -30.69068        11.04165
     2015.15948       -26.18572        10.98026
     2015.16221       -46.38877        10.91706
     2015.16495       -53.73082        10.87914
     2015.16769       -52.25186        11.11207
     2015.17043       -54.00391        11.19333
     2015.17316       -61.29895        11.61766
     2015.17590       -58.39200        11.55627
     2015.17864       -62.25205        11.33236
     2015.18138       -55.76509        11.29986
     2015.18412       -54.79614        11.14999
     2015.18685       -62.88818        11.44973
     2015.18959       -49.90923        11.31792
     2015.19233       -53.99628        11.95712
     2015.19507       -65.34732        11.02540
     2015.19780       -73.38437        12.01490
     2015.20054       -37.30541        11.47320
     2015.20328       -50.59846        11.20597
     2015.20602       -49.45251        11.61946
     2015.20876       -56.34755        11.20597
     2015.21149       -62.06860        11.05248
     2015.21423       -77.17864        11.68086
     2015.21697       -71.61269        11.58335
     2015.21971       -51.73874        11.30889
     2015.22245       -30.62178        11.12652
     2015.22518       -38.77783        11.16624
     2015.22792       -33.74487        11.34320
     2015.23066       -50.09292        11.38653
     2015.23340       -65.80396        11.43709
     2015.23613       -58.91301        11.53279
     2015.23887       -50.95906        11.37931
     2015.24161       -59.49410        11.50751
     2015.24435       -60.11115        11.72058
     2015.24709       -58.91519        11.44793
     2015.24982       -62.63824        10.87914
     2015.25256       -66.52029        11.01276
     2015.25530       -60.00633        10.96581
     2015.25804       -66.91638        11.08138
     2015.26078       -57.32942        11.02179
     2015.26351       -59.57747        10.96762
     2015.26625       -62.07952        11.06874
     2015.26899       -72.28356        11.20777
     2015.31396       -66.58861        30.17269
     2015.31553       -57.49934        10.57218
     2015.31827       -68.13239        10.56134
     2015.32101       -57.85044        10.75274
     2015.32375       -45.17148        10.38800
     2015.32648       -58.60753        10.26160
     2015.32922       -81.16357        10.67871
     2015.33196       -56.57262        10.18215
     2015.33470       -52.50766        10.05576
     2015.33744       -57.71571        10.05576
     2015.34017       -55.49776         9.96908
     2015.34291       -47.15780        10.03409
     2015.34565       -51.76685        10.22910
     2015.34839       -46.73589        10.14965
     2015.35112       -50.23594         9.94381
     2015.35386       -46.55399         9.98353
     2015.35660       -48.62703        10.01423
     2015.35934       -39.43608        10.34647
     2015.36208       -32.56412        10.24535
     2015.36481       -43.37417         9.86616
     2015.36755       -41.68722         9.83908
     2015.37029       -37.67326         9.89505
     2015.37303       -44.94831         9.86616
     2015.37577       -44.89035         9.82644
     2015.37850       -49.80740        10.16229
     2015.38124       -48.43945         9.80296
     2015.38398       -52.53549        10.00520
     2015.38672       -45.70054         9.69282
     2015.38945       -43.40758         9.83185
     2015.39219       -40.11063         9.84810
     2015.39493       -44.06468        10.03228
     2015.39767       -45.10272        10.00520
     2015.40041       -47.50877         9.81199
     2015.40314       -41.06381         9.99978
     2015.40588       -58.78386         9.99436
     2015.40862       -38.64891         9.75782
     2015.41136       -40.86095         9.82102
     2015.41410       -44.19400         9.83908
     2015.41683       -40.04504         9.68379
     2015.41957       -41.39909         9.68379
     2015.42231       -37.25314         9.70185
     2015.42505       -45.14018         9.87700
     2015.42778       -41.37123         9.76504
     2015.43052       -32.86127         9.59170
     2015.43326       -34.69532         9.63323
     2015.43600       -36.12937         9.66212
     2015.43874       -27.86541         9.54836
     2015.44147       -39.33246        10.07381
     2015.44421       -38.85750         9.71629
     2015.44695       -37.27855         9.78671
     2015.44969       -41.10459         9.68921
     2015.45243       -35.18364         9.91130
     2015.45516       -33.93269         9.67657
     2015.45790       -31.32473         9.89505
     2015.46064       -41.53278         9.89866
     2015.46338       -36.99682         9.99617
     2015.46611       -28.69587         9.72713
     2015.46885       -26.04292         9.57184
     2015.47159       -33.31096         9.65670
     2015.47433       -35.24701        10.04131
     2015.47707       -33.50205         9.99436
     2015.47980       -34.12110         9.77227
     2015.48254       -36.53815         9.78491
     2015.50718       -32.00756         9.55378
     2015.50992       -28.80461         9.73615
     2015.51266       -23.96565         9.71449
     2015.51540       -31.19370         9.57184
     2015.52087       -24.35779         9.85352
     2015.52361       -27.89284         9.89144
     2015.52635       -33.24988         9.60976
     2015.52908       -27.02493         9.68379
     2015.53182       -27.21097         9.69101
     2015.53456       -26.66502         9.78491
     2015.53730       -36.18807         9.82283
     2015.54004       -31.56511        10.02506
     2015.54277       -29.13616         9.92214
     2015.54551       -20.25720         9.95103
     2015.54825       -22.30025         9.86977
     2015.55099       -10.88329         9.95825
     2015.55373       -26.34734         9.88241
     2015.55646       -21.29939         9.88061
     2015.55920       -13.11643         9.82102
     2015.56194       -25.88748        10.10993
     2015.56468       -21.38552         9.79935
     2015.56741       -22.93157         9.84088
     2015.57015       -26.99362        10.33563
     2015.57289       -27.38166        10.03409
     2015.57563       -24.75471         9.95103
     2015.57837       -22.21375         9.99436
     2015.58110       -21.04480        10.01423
     2015.58384       -14.75685         9.84630
     2015.58658       -25.60489        10.02506
     2015.58932       -15.79294        10.15326
     2015.59206       -31.04898         9.80657
     2015.59479       -21.69503         9.83727
     2015.59753       -20.33408         9.90769
     2015.60027       -25.93912        10.16590
     2015.60301       -28.93317        10.27063
     2015.60574       -28.84621        10.25619
     2015.60848       -21.24126        10.00339
     2015.61122       -23.69931         9.88061
     2015.61396       -20.53235         9.88422
     2015.61670       -23.56140         9.71449
     2015.61943       -15.40244         9.70546
     2015.62217       -14.59749         9.69823
     2015.62491       -20.23654         9.64948
     2015.62765       -17.66658         9.66032
     2015.63039       -21.20863         9.82283
     2015.63312       -19.91767         9.93478
     2015.63586       -23.61872         9.90769
     2015.63860       -26.15777         9.69823
     2015.64134       -31.13681         9.60073
     2015.64407       -29.52886         9.94381
     2015.64681       -27.60190         9.83366
     2015.64955       -34.26395         9.91853
     2015.65229       -33.75200         9.93658
     2015.65503       -43.89904        10.12076
     2015.65776       -31.51109         9.88783
     2015.66050       -28.97813         9.79935
     2015.66324       -41.88018         9.89866
     2015.66598       -32.09322        10.15146
     2015.66872       -29.90727        10.25799
     2015.67145       -16.22332        10.23632
     2015.67419       -19.10336         9.96186
     2015.67693       -23.07741         9.82283
     2015.67967       -24.80945         9.81921
     2015.68240       -21.71950         9.75060
     2015.68514       -34.35155         9.72532
     2015.68788       -28.94459         9.76504
     2015.69062       -22.72864         9.51406
     2015.69336       -27.87668         9.99256
     2015.69609       -22.57573         9.94200
     2015.69883       -22.47378         9.81199
     2015.70157       -24.11982         9.79755
     2015.70431       -11.24787         9.83185
     2015.70705       -22.79991         9.60434
     2015.70978       -19.47196        10.30494
     2015.71252       -24.51501         9.68198
     2015.71526       -24.68905         9.75963
     2015.71800       -23.76210         9.81741
     2015.72073       -25.03014         9.65670
     2015.72347       -24.95419         9.67296
     2015.72621       -28.64624         9.77227
     2015.72895       -41.65328         9.81019
     2015.73169       -33.76933         9.88783
     2015.73442       -28.15837         9.73074
     2015.73716       -22.81442         9.69282
     2015.73990       -23.55147         9.89505
     2015.74264       -26.67651         9.90047
     2015.74538       -23.12656        10.09548
     2015.74811       -24.78060        10.09006
     2015.75085       -32.82865         9.71449
     2015.75359       -29.44470         9.61517
     2015.75633       -24.32374         9.79574
     2015.75906       -23.95679         9.65129
