# ================= DQRFIT RESULTS ================
# INPUT FILE: series/POUL.rad
# OUTPUT: LDETRENDED
# FILTER FUNCTION: f(t)
# f(t)=+line(t)+annual(t)
# line(t)=+P 1+P 2*t
# annual(t)=+P 3*sin(2*pi*t+P 4)
# heav(t)=(t<0?0:1)
# TOTAL OBSERVATIONS MTOT=  793
# INITIAL TIME INTERVAL= 2007.7967 - 2004.4326 =  3.3642
# TOTAL OBSERVATIONS AFTER PREFILTER M=  760
# TIME-SPAN= 2007.7967 - 2004.4326 =  3.3642
# OBSERVATIONS: USED M=   760 REJECTED MTOT-M=    33 %USED=   95.8386
# N=  4 PARAMETERS
# MAXSIG= 175.00000
# MAXRES=  79.51344
# SCALE FACTOR FOR LENGTHS: SCL=  10.00000
# SCALE FACTOR FOR SIGMAS: SCLSIG=   1.00000
# CHI^2=   1153.792 DOF=   756 CHI^2/DOF=   1.52618
# RMS=     15.566 SDEV=     15.259 MEAN=   -3.12295
#  P #       PARAMETER +-    SIGMA %error PARAMETER NAME
# P 1 =        -3.62698 +-  889.000 ****** YZERO                              
# P 2 =         0.00674 +-    0.443 ****** SLOPE                              
# P 3 =         7.43559 +-    0.544   7.32 ANNUAL AMPLITUDE                   
# P 4 =        -2.51140 +-    0.082   3.27 ANNUAL PHASE                       
#       T            LDETRENDED       SIG_OBS
     2004.43258        11.08181         7.50127
     2004.43531         9.27179         7.61369
     2004.43805        16.58278         7.45556
     2004.44079        13.33076         7.52598
     2004.45995         4.52163         7.80641
     2004.46269         0.53661         7.73105
     2004.46543         4.85659         7.71005
     2004.46817        10.68757         7.78541
     2004.47091         9.31555         7.65446
     2004.47364        14.22354         7.63716
     2004.47638         2.02452         7.62851
     2004.47912        11.36150         7.82000
     2004.49281         7.27741         8.03619
     2004.49555         2.78439         8.02260
     2004.49719         9.06638        19.88478
     2004.55028         6.84302         8.12637
     2004.55304         7.65700         7.71005
     2004.55578         6.34398         7.83853
     2004.55852        12.77896         7.87806
     2004.56125         5.45594         7.82370
     2004.56400         5.21393         7.90153
     2004.56673        13.97991         7.86077
     2004.56947         9.87289         8.04237
     2004.57221         7.68387         7.97071
     2004.57495         6.51185         7.98554
     2004.57768        13.08483         7.83112
     2004.58042        13.69182         8.08437
     2004.58316         7.02880         7.89536
     2004.58590         3.78378         7.88547
     2004.58863        11.50476         8.01148
     2004.59137        17.34174         8.08313
     2004.59411        13.37972         8.19061
     2004.59685        11.23370         8.17949
     2004.59958        14.09969         7.96207
     2004.60233         8.88767         7.86941
     2004.60506         5.65165        10.08323
     2004.60780         5.80163         8.16838
     2004.61054        13.04861         7.81753
     2004.61327        11.19559         8.13996
     2004.61601        13.08358         8.33639
     2004.61875        10.58656         7.94724
     2004.62149         4.96554         8.53282
     2004.62423        11.90152         8.36727
     2004.62696         9.09350         8.22026
     2004.62973        10.74748         8.78113
     2004.63244        12.46446         8.54764
     2004.63507         7.14545         9.20734
     2004.64147        20.18440        14.13035
     2004.64339        16.96539         8.84166
     2004.64613        15.64337         8.09672
     2004.64887         8.25435         8.09302
     2004.65160        12.73134         8.05225
     2004.65434         4.74332         8.29192
     2004.65708         2.93330         8.23632
     2004.65982         7.58628         8.03495
     2004.66256        12.87926         8.12020
     2004.66529        13.60024         8.08931
     2004.66803        17.88523         8.73789
     2004.67077        10.28521         8.19679
     2004.67351        16.01119        15.11866
     2004.67624        17.20117         8.13996
     2004.67899         6.08315         8.12143
     2004.68172        10.85013         7.95218
     2004.68446        10.91211         8.11896
     2004.68720         8.38410         8.45499
     2004.68957        10.17008         9.94239
     2004.69253         2.76506         8.81201
     2004.69541         7.54304         9.91645
     2004.69815        11.29302         8.92073
     2004.70089         7.93900         9.32964
     2004.70362         7.48499        10.36242
     2004.70545       -15.01603        21.70327
     2004.71184        14.61993        11.12219
     2004.71457        10.89091        10.33895
     2004.71732         9.63289         9.89298
     2004.71954        14.88888        12.43664
     2004.72281       -13.49514        11.83006
     2004.72501       -22.49716        16.77037
     2004.72735         4.14083        25.26860
     2004.73052       -32.17920        17.68703
     2004.73374       -12.88122        13.59049
     2004.73648       -17.87224        12.65159
     2004.74196       -20.96627        17.13728
     2004.74469         4.89771        17.17805
     2004.74743        16.37769        20.95092
     2004.75015       -29.15633        16.91491
     2004.75291       -11.73035        11.12713
     2004.75945         7.28161        25.55644
     2004.76112        -2.37340        11.55457
     2004.76386        -7.86142        11.83871
     2004.76659        -6.25344        12.39093
     2004.76933       -10.15946        12.48605
     2004.77207        -9.55948        14.90370
     2004.77481        -6.03749        13.44595
     2004.77754        -7.65051        13.80421
     2004.78029         0.23947        14.43302
     2004.78302       -14.31455        15.60787
     2004.78576        -4.70757        16.10697
     2004.78850        -6.03659        15.45839
     2004.79123        -7.34161        14.79499
     2004.79398         4.45738        15.05319
     2004.79671        -1.79064        14.93088
     2004.79945       -12.31666        15.48063
     2004.80219        -5.45068        15.40527
     2004.80492        10.54630        18.30843
     2004.80767       -30.95572        22.02200
     2004.81040       -15.75273        21.66498
     2004.81314       -19.31975        20.42218
     2004.81588        -6.02577        19.98238
     2004.81862        -7.07479        21.84164
     2004.82136       -45.57581        23.70583
     2004.82409       -25.90283        21.24371
     2004.82683       -14.01785        17.34977
     2004.82956        -3.38886        18.97554
     2004.83231       -14.44988        17.37942
     2004.83504       -16.44490        18.39985
     2004.83778       -27.42492        21.03616
     2004.84052       -25.72494        17.89458
     2004.84325       -19.51396        17.44366
     2004.84600       -16.25397        18.13177
     2004.84873       -16.70399        17.27565
     2004.85147       -24.93201        19.27944
     2004.85420       -11.58303        22.69405
     2004.85695       -28.26005        22.42968
     2004.85969       -53.01407        25.05488
     2004.86242       -51.41109        23.54894
     2004.86516       -69.07710        23.94797
     2004.86790       -33.19212        24.17157
     2004.87064       -59.31714        22.07883
     2004.87337       -41.04016        22.46674
     2004.87611       -59.85418        21.10164
     2004.87885       -46.16820        21.93058
     2004.88159       -10.09921        21.67980
     2004.88433         0.27477        11.84365
     2004.88712         0.41575        11.26055
     2004.88986       -16.63227        11.45698
     2004.89260         1.83571        11.17407
     2004.89533        11.19369        11.81771
     2004.89807        13.79367        11.81153
     2004.90629        -9.68338        11.32355
     2004.90902        -5.92340        10.50202
     2004.91176         0.24458        10.09064
     2004.91360         3.83357        20.86939
     2004.92271       -17.53149        11.90666
     2004.92545        -7.28451        12.15744
     2004.92819        10.71947        11.75717
     2004.93093         7.24345        11.74606
     2004.93366        11.89143        12.71831
     2004.93640        -6.95858        12.51694
     2004.93914       -15.56560        12.77760
     2004.94188        -3.60462        13.29647
     2004.96925       -15.40381        12.50705
     2004.97194       -13.68482        13.73379
     2004.97473       -13.31784        13.60161
     2004.97747       -16.15086        12.64542
     2004.98021        -5.43488        12.08949
     2004.98295        -4.66590        13.28905
     2004.98568       -11.55192        13.14328
     2004.98842         1.33307        13.24334
     2004.99118       -10.42195        14.08094
     2004.99390        -3.88497        13.65226
     2004.99663        -9.36899        13.71650
     2004.99937        -5.19801        13.60531
     2005.00479         7.39496        13.77950
     2005.00752         0.71394        13.24334
     2005.00929        -1.21207        22.13689
     2005.01306       -38.71610        17.98723
     2005.01580        -0.87512        18.11077
     2005.01854         1.37586        18.45297
     2005.02128       -78.45916        21.31165
     2005.02401       -67.51517        20.92745
     2005.02676       -28.39219        17.19782
     2005.02949       -14.40221        17.65367
     2005.03199       -18.88723        21.04605
     2005.03770       -40.54227        18.20342
     2005.04044       -56.91528        20.53336
     2005.04318       -32.98230        19.65006
     2005.04592       -66.34232        21.68721
     2005.04865       -61.71434        22.50504
     2005.05139       -60.41036        22.24067
     2005.05961       -42.79641        26.41257
     2005.06234       -39.30043        24.87945
     2005.08425       -45.49758        27.89997
     2005.08698        -4.83460        14.65663
     2005.08972       -11.40462         8.65759
     2005.09246        -6.67064         8.69589
     2005.09520        -3.92765         8.53405
     2005.09794       -16.60667         8.67118
     2005.10067       -12.65569         8.24744
     2005.10341        -5.02571         8.05101
     2005.10615        -5.82273         8.37592
     2005.10889        -0.46175         8.38333
     2005.11162        -4.03876         8.35245
     2005.11436        -7.39678         8.36110
     2005.11710         4.09920         8.42534
     2005.11984         3.25418         8.44881
     2005.12258        -3.78084         8.05472
     2005.12531        -4.69686         8.61682
     2005.12805       -11.58088         8.54517
     2005.13079        -4.03989         8.52046
     2005.13353       -10.23491         8.54888
     2005.13627         1.90907         8.40063
     2005.13900        -0.04295         8.58470
     2005.14174        -6.20997         8.33886
     2005.14448        -8.66999         8.77372
     2005.14722        -3.94700         8.68724
     2005.14995        -4.35802         8.73048
     2005.15269        -0.77904         8.74036
     2005.15543         4.99494         8.73048
     2005.15817        -0.48508         8.80707
     2005.16091         7.02290         8.68230
     2005.16364         1.38788         8.79595
     2005.16638         2.78487         9.03315
     2005.16912        -2.28215         8.78854
     2005.17186        -3.16217         8.86637
     2005.17368        12.40082        15.48681
     2005.20471        -0.50739         9.52112
     2005.20745         3.82459         8.98991
     2005.21019         2.66857         9.00720
     2005.21292        -6.42745         9.35188
     2005.21566         5.79153         8.72059
     2005.21840         3.48352         8.63659
     2005.22113        -5.62550         9.28640
     2005.22382         9.75248         8.71071
     2005.22661         6.63746         9.01956
     2005.22936        -0.31356         9.08874
     2005.24578         2.48833         9.50630
     2005.24852         3.16531         9.25181
     2005.25125        -1.19171         9.46059
     2005.25399         4.07728         9.32840
     2005.25673         5.08426         9.82009
     2005.54688         1.97130         8.16096
     2005.54962         6.75028         8.41051
     2005.55236        -0.19974         8.26844
     2005.56057        17.90221         8.71442
     2005.56331         2.79619         8.47722
     2005.56878         9.36215         8.83796
     2005.57152         5.61514         8.54640
     2005.57426        -0.40988         8.88490
     2005.57700         1.12210         8.64029
     2005.57974        -0.35892         8.74283
     2005.58247        13.44506         9.03191
     2005.58521         3.42204         8.58717
     2005.58795         1.24603         8.34504
     2005.59069         4.91801         8.53034
     2005.59342         1.04399         8.44387
     2005.59616        -4.48903         8.61064
     2005.59890         6.19895         8.56617
     2005.60164         0.53593         8.43769
     2005.60438         6.01291         8.56123
     2005.60711         1.89690         8.47105
     2005.60985         4.41988         8.82190
     2005.61259        -8.64614         8.51923
     2005.61533        -4.39416         8.73048
     2005.61807         5.86582         8.79472
     2005.62080        -0.69220         8.52911
     2005.62354        -8.05021         8.80337
     2005.62628         6.15777         8.64029
     2005.62902        -2.05225         8.49699
     2005.63175         8.63573         8.54640
     2005.63449         3.79271         8.45993
     2005.63723        -0.39631         8.62670
     2005.63997         6.74367         8.85525
     2005.64271         3.67366         8.41916
     2005.64544        -4.70936         8.60200
     2005.64818         4.70062         8.60570
     2005.65092         7.04160         8.42904
     2005.65366        -6.92342         8.74036
     2005.65640         6.82056         8.37469
     2005.65913         5.96755         8.63041
     2005.66188         3.84253         8.48464
     2005.66461        -0.88149         8.92443
     2005.66735         1.84049         8.90590
     2005.67008         2.31447         8.54640
     2005.67282         9.46245         8.83672
     2005.67556        12.78343         8.52540
     2005.67830         7.47442         8.66747
     2005.68104        -4.04760         8.64647
     2005.68377        -2.65662         8.83054
     2005.68651         2.02136         8.47228
     2005.68925         6.28534         8.52911
     2005.69199         2.16832         8.55876
     2005.69473         4.46631         8.41792
     2005.69746        -5.03671         8.69589
     2005.70020         6.50427         9.18633
     2005.70294         7.06125         8.62423
     2005.70568         5.02523         8.92567
     2005.70841         5.93621         8.80707
     2005.71115        -8.78781         8.65265
     2005.71389        -1.71682         8.58223
     2005.71663         3.43816         8.93555
     2005.71937        15.17514         8.77001
     2005.72210         4.61412         8.49699
     2005.72484         1.17610         8.46240
     2005.72758        -5.89192         8.40434
     2005.73032        -8.15193         8.77495
     2005.73306        -3.54795         8.88984
     2005.73579         3.79503         9.01709
     2005.82067         0.74146         8.63165
     2005.82340        15.70344         8.94667
     2005.82614        11.58142         8.70824
     2005.82888         5.08640         8.87008
     2005.83162        12.50838         9.29505
     2005.83404         1.89937        10.34883
     2005.83710        -0.20365         9.17892
     2005.83989         9.82533         8.71071
     2005.84263        -1.98969         9.34323
     2005.84531         1.76129         9.23575
     2005.84805         7.22927         9.32099
     2005.85078        -0.29175         8.92196
     2005.85352        -5.83276         9.09862
     2005.85626         5.13222         9.26046
     2005.85900         1.15420         9.49395
     2005.86173        -2.31682         9.08503
     2005.86447        -1.92184         8.98126
     2005.86721         6.07714         8.90467
     2005.86995        -0.65788         9.08133
     2005.87269        -7.85589         9.07391
     2005.87542        -9.52391         8.83178
     2005.87816        -1.45393         8.94791
     2005.88084       -11.28195         9.10109
     2005.88358       -10.10097         9.53842
     2005.88632        -6.09199         9.06033
     2005.88906        -3.02300         9.37041
     2005.89179         4.55798         9.00844
     2005.89453         6.28896         9.06774
     2005.89727        -1.78906         9.32223
     2005.90001         0.68192         9.36176
     2005.90274        -3.97110         9.44947
     2005.90548        -4.30511         9.11468
     2005.90822        -6.95313         8.91702
     2005.91096       -12.00915         9.87939
     2005.91370        -6.39617         9.19128
     2005.91643       -16.02519         9.45441
     2005.91917       -24.32421         9.52607
     2005.92191         1.99677         8.97879
     2005.92465        -8.50124         9.05662
     2005.92739        -0.96526         9.25305
     2005.93012        -7.27728         9.24934
     2005.93286       -12.51430         8.98126
     2005.93560        -2.03632         9.02079
     2005.93834        -7.89734         9.14433
     2005.94107        -9.82235         9.31111
     2005.94382        -6.19637         9.28393
     2005.94655        -2.39339         9.30987
     2005.94929        -7.42741         8.94914
     2005.95203        -6.85643         9.20363
     2005.95482       -11.66045         9.44206
     2005.95756        -6.89347         9.39388
     2005.96030        -0.54448         8.85155
     2005.96304        -9.09250         9.10974
     2005.96577        11.65148         9.75955
     2005.96851        -1.14654         9.93251
     2005.97125       -11.91956         9.58907
     2006.00410        -0.45978         9.51124
     2006.00684        -1.14780         9.74226
     2006.00958       -10.63682         9.45071
     2006.01232       -11.68583         9.73361
     2006.01505       -17.72285         9.81515
     2006.01779         1.59513         9.79415
     2006.02053        -9.32289        10.00787
     2006.02327        -5.73191        10.04740
     2006.02600        -8.76893        10.12276
     2006.02874        -3.42095         9.80897
     2006.03148        -9.43496         9.89298
     2006.03422        -7.08898         9.80403
     2006.03696        -5.61600         9.72743
     2006.03970        -9.62202         9.43465
     2006.04243       -12.65804         9.32840
     2006.04517        -2.05706        10.09558
     2006.04791        -5.78007         9.47294
     2006.05065        -7.50109         9.39141
     2006.05338        -7.73511         9.78056
     2006.05612        -9.37413         9.45441
     2006.05886       -14.05115         9.48036
     2006.06160       -20.45717         9.71879
     2006.06433        -6.01019         9.62860
     2006.06707       -26.35920         9.36794
     2006.06981        -9.73422         9.13815
     2006.07255       -14.53524         9.21104
     2006.07529       -21.48126         9.68914
     2006.07802       -21.97028         9.54460
     2006.08076       -18.73630         9.34570
     2006.08350       -16.84131         9.77561
     2006.08624       -10.21933         9.47542
     2006.08898       -10.90935         9.18386
     2006.09171        -9.77937         9.29505
     2006.09354        -0.56038        17.57832
     2006.10266       -20.97144         8.85155
     2006.10540       -20.87946         8.99979
     2006.10814       -24.62848         9.33582
     2006.11088       -13.07350         9.55448
     2006.11362       -17.91052         8.95038
     2006.11636       -14.84354         8.97261
     2006.11909       -12.99055         9.31605
     2006.12183       -12.17057         9.18139
     2006.12457        -9.79959         9.15792
     2006.12731        -9.68661         9.00844
     2006.12999        -9.92563         9.70396
     2006.13278       -11.99765         9.29752
     2006.13552        -5.08767         8.94914
     2006.13826        -0.74668         8.72554
     2006.14099         0.58830         9.02944
     2006.14373        -6.33172         9.14186
     2006.14647        -5.31574         9.36423
     2006.14921        -1.78276         9.20857
     2006.15156        -5.07677        10.36119
     2006.15469         2.86121         9.00350
     2006.15742        10.43219         8.68724
     2006.16016         2.59017         8.42657
     2006.16290        -9.76385         9.67802
     2006.16564        -9.08487         8.94914
     2006.16837       -10.44089         9.19375
     2006.17111        -7.92591         9.25305
     2006.17385        -4.97492         9.18139
     2006.17659       -14.31894         9.40253
     2006.17932        -0.38096         9.10356
     2006.18206       -14.84098         9.29876
     2006.18480         5.53400         9.67184
     2006.18754         0.55498         9.40253
     2006.19028       -12.20703         9.70520
     2006.19302       -12.91505         9.56683
     2006.19575        -5.41807         9.42353
     2006.19849         3.87491        10.12152
     2006.20123         4.09789         9.95722
     2006.20397        -6.36013        10.40072
     2006.20670        -7.88115         9.85839
     2006.20944       -16.68316         9.67802
     2006.21218       -13.30818         9.91398
     2006.21492        -4.12720        10.09064
     2006.21765        -4.43322         9.71261
     2006.22039       -13.74424         9.84850
     2006.22313       -18.16826         9.85591
     2006.22587         1.89473        10.24383
     2006.22861        -5.39329        10.10176
     2006.23135        -8.47931        10.40196
     2006.23408       -20.26733        10.49214
     2006.23682        -5.69335         9.48530
     2006.23956        -8.24937         9.67555
     2006.24230        -6.37738        10.17588
     2006.24503         1.81160        10.06222
     2006.24777        -3.10442         9.74967
     2006.25051        -9.62144         9.79909
     2006.25325        -7.28146         9.81144
     2006.25598         1.55652         9.66814
     2006.25872         3.16650         9.64219
     2006.26146         0.10949         9.89915
     2006.26420        -5.72453        10.16970
     2006.26694        -3.10855         9.38894
     2006.26968        -5.48157         9.73855
     2006.27241        -1.87459        10.06346
     2006.27515        -0.26761        10.46249
     2006.27789         0.63038        10.22900
     2006.28062        -1.54164         9.98192
     2006.28336         8.86034         9.65455
     2006.28610        10.39332         9.57548
     2006.28884        -6.24370         9.93127
     2006.29158         1.37328         9.91274
     2006.29431         0.60326        10.16723
     2006.29705         5.16425         9.92757
     2006.29979         0.23123        10.64286
     2006.30253        -9.06279        10.61691
     2006.30527        -7.88981        10.18453
     2006.30801         0.96017        10.52179
     2006.31074         4.05215        10.77257
     2006.31245       -11.59486        25.16606
     2006.31622        -3.89788        10.42666
     2006.32169       -10.38392        10.55514
     2006.32443        -8.95694        10.38960
     2006.32717       -10.94196        10.37601
     2006.32931        -5.76497        14.51332
     2006.33264        -3.85399        10.54526
     2006.33504       -10.11401        14.74434
     2006.33806        -0.34003        11.43103
     2006.34080        -2.05505        11.25808
     2006.34354         0.34193        10.61691
     2006.34628        -1.37109        11.38903
     2006.34901       -15.41410        11.01965
     2006.35175       -13.13312        11.29390
     2006.35449        -7.24214        11.07277
     2006.35723        -3.90316        11.19754
     2006.35997        -5.13718        11.62993
     2006.36270        -7.03820        10.98135
     2006.36545       -12.56121        12.13767
     2006.36818         2.43277        11.33097
     2006.37092         4.15875        11.65340
     2006.37365        -9.40727        12.48111
     2006.37639        -0.66429        11.70035
     2006.37913         0.67169        11.95237
     2006.38187        -7.22733        11.48292
     2006.38461         3.34866        11.56569
     2006.38643        27.59264        21.93923
     2006.39008        -5.56838        11.95731
     2006.39282         6.25460        11.46192
     2006.39556        -2.84342        11.46933
     2006.39830        11.72856        11.66081
     2006.40103         4.04955        11.09130
     2006.40378         1.20353        11.50021
     2006.40651        -0.96449        12.63677
     2006.40925       -16.42451        12.55400
     2006.41198         6.90247        13.19887
     2006.41472         2.49145        12.17474
     2006.41746       -11.48557        13.16428
     2006.42020       -20.80858        13.47189
     2006.42294         3.24840        14.06982
     2006.42565        -7.59862        13.50154
     2006.42841        -3.85064        12.85049
     2006.43115         0.15434        14.96300
     2006.43389       -23.12068        15.32991
     2006.43661        -6.94669        15.35833
     2006.43936         7.09729        15.95008
     2006.44211        -0.39973        14.14888
     2006.44484         9.60425        13.77333
     2006.44758         3.50623        17.37818
     2006.45031        17.87921        18.61728
     2006.45305        22.68819        22.37656
     2006.45579        24.43718        16.83461
     2006.45853        11.99816        19.09290
     2006.46127         7.61014        22.66070
     2006.46399        22.15512        22.28267
     2006.46674         8.18710        28.81910
     2006.46946         9.05508        34.22392
     2006.47217        45.14307        48.77554
     2006.47493         6.07805        46.65438
     2006.47766        20.76603        29.59369
     2006.48311       -23.02701        40.25384
     2006.48817       -50.63304       108.26434
     2006.49680        18.78790       112.41648
     2006.50230        -2.84414        90.56249
     2006.50529        56.87584        86.91686
     2006.64196        15.16992         8.08561
     2006.64470        14.06390         8.20544
     2006.64744        10.03988         8.10537
     2006.65018        17.99487         8.17455
     2006.65292        17.06885         8.43646
     2006.65565        16.11083         8.40063
     2006.65839        21.51981         8.62423
     2006.66113        16.29079         8.21656
     2006.66387         5.91177         8.25362
     2006.66660        16.97276         8.22397
     2006.66934         9.61574         8.34998
     2006.67209        18.58272         8.48464
     2006.67482        12.41970         8.41051
     2006.67756         7.01168         8.68724
     2006.68029        10.67766         8.25115
     2006.68303        15.60464         8.72801
     2006.68577        15.74763         8.62918
     2006.68851        22.29961         8.60076
     2006.69125        15.84359         8.17208
     2006.69398        10.41457         8.27833
     2006.69672        11.42955         8.34380
     2006.69946        21.19653         8.09796
     2006.70220        25.46652         8.20173
     2006.70493        19.07950         8.19432
     2006.70767        11.43348         8.16096
     2006.71042        15.20546         8.18567
     2006.71309        34.44744         8.75395
     2006.71589        17.78642         8.30303
     2006.71862        12.48440         8.02260
     2006.72136        23.21339         8.01272
     2006.72410         6.27837         8.22273
     2006.72684         6.54135         8.07572
     2006.72958        14.40433         8.29439
     2006.73231        16.49231         7.99542
     2006.73505         7.36329         8.14861
     2006.73779         2.65828         8.13502
     2006.73979        29.57126        13.58308
     2006.75695        14.88415         7.84965
     2006.75969        13.62813         8.14737
     2006.76243        22.74811         7.85088
     2006.76517        11.96609         8.01642
     2006.76791        18.84207         8.06213
     2006.77059         5.20505         8.11155
     2006.77338         3.79604         8.04731
     2006.77612        12.79802         7.91883
     2006.77886        15.85900         7.90647
     2006.78159        11.52198         7.80641
     2006.78379        14.81997        10.35872
     2006.79255        16.37991         7.79035
     2006.79528        10.79389         7.75329
     2006.79802        15.80187         8.15973
     2006.80076        12.27185         7.92253
     2006.80350         5.56483         7.79776
     2006.80624        10.19481         7.36043
     2006.80897         5.32980         7.82741
     2006.81171         9.44978         7.81259
     2006.81445         9.86276         8.19926
     2006.81719        -1.71026         8.05966
     2006.81992        15.85972         7.67546
     2006.82266         4.75670         7.62604
     2006.82540        10.61469         8.19185
     2006.82814        11.34467         7.81629
     2006.83088         9.94565         7.73476
     2006.83259        33.26464        17.47701
     2006.83641        11.47761         7.50621
     2006.83915         9.64459         7.82741
     2006.84188        11.79357         7.84965
     2006.84463        12.59956         7.77676
     2006.84736        11.19754         7.67299
     2006.85010        20.02152         8.03619
     2006.85284        12.51750         7.95465
     2006.85557        18.50548         7.84718
     2006.85831        11.55846         7.70634
     2006.86105         5.23244         8.02260
     2006.86379        -1.61857         7.91389
     2006.86653        17.10841         7.97566
     2006.86927        15.62639         7.57168
     2006.87189        18.02137         8.38704
     2006.87474         8.40435         7.74217
     2006.87748         5.15233         7.66063
     2006.88021         2.88032         7.65693
     2006.88296        14.12130         7.79158
     2006.88569         6.11328         7.96083
     2006.88843         7.30926         7.72487
     2006.89117        -2.96776         7.59269
     2006.89390        -5.07678         7.81011
     2006.89664        -0.99580         7.71252
     2006.89938         4.62919         7.45556
     2006.90212        12.81417         7.65940
     2006.90759       -16.47787         7.58157
     2006.91036       -24.14889         7.87065
     2006.91307        -5.28991         8.02878
     2006.91580         3.42608         7.50250
     2006.91854        -0.88294         7.77429
     2006.92129        -1.18496         7.82741
     2006.92402         2.76502         8.03619
     2006.92676        -6.21000         7.86324
     2006.92950        -8.86502         7.76193
     2006.93223         0.24997         7.83112
     2006.93451        10.07195        10.05358
     2006.93771         7.59893         7.80147
     2006.94045         9.27391         7.79653
     2006.94318         8.77989         7.77923
     2006.94592        -3.12113         7.96330
     2006.94866         2.36485         8.13131
     2006.95140        11.50284         7.73352
     2006.95414         0.23282         8.34504
     2006.95687         8.50880         7.91265
     2006.95962         1.32978         8.02754
     2006.96235         3.55176         8.11402
     2006.96509         3.13074         7.92748
     2006.96783         5.20273         8.55999
     2006.97057        -0.60029         8.21161
     2006.97331        -4.08131         8.14120
     2006.97604       -10.44733         8.09055
     2006.97878        13.14465         8.32774
     2006.98150        -4.53437         7.97442
     2006.98425        -2.75739         7.94477
     2006.98676         2.16060         8.80337
     2006.98929        -8.05642         9.89421
     2007.34292       -20.72480         8.76507
     2007.34742       -35.17583        17.16199
     2007.35313       -12.11687        15.17920
     2007.36134       -23.34993        14.15877
     2007.36379       -22.55394        19.42645
     2007.36681        -9.63896        14.83576
     2007.36950       -20.05498        15.22614
     2007.37263        -4.85600        11.50886
     2007.37740       -45.85804        22.31849
     2007.38022       -25.51005        18.83223
     2007.38877       -37.72811        13.80792
     2007.40743       -47.55724        33.79030
     2007.41016       -12.18426        34.30669
     2007.41347        -1.56228        13.00244
     2007.41627        -7.66230        12.71089
     2007.41895        -9.77632        13.10869
     2007.42391       -34.76435        25.65280
     2007.42733        -9.34837        11.87454
     2007.43218       -23.30340        19.41781
     2007.43492       -22.84242        21.01640
     2007.43760       -21.48844        20.82862
     2007.44325       -15.70848        16.55295
     2007.44593       -17.93250        19.60682
     2007.44855       -43.78751        20.81997
     2007.45123       -28.74153        28.42872
     2007.45694       -15.57457        16.34664
     2007.45962       -30.48059        17.78216
     2007.47057       -30.26266        20.42712
     2007.47861       -34.79272        23.73425
     2007.48163       -12.43674        17.44984
     2007.48426       -41.11876        18.42456
     2007.48962         2.39621        25.26983
     2007.49931         6.10114        17.75251
     2007.50730       -45.08391        17.60797
     2007.50964       -46.00593        25.46132
     2007.51244       -19.17695        10.72686
     2007.51500       -10.49796        17.68332
     2007.52076        -7.31800        15.44357
     2007.52321       -11.80202        18.09718
     2007.52635       -13.05404        18.72105
     2007.52908         0.95094        12.21797
     2007.53167        -0.26707        12.17721
     2007.53399        20.08791        26.06172
     2007.53662        63.50789        38.52800
     2007.54158        85.29986        36.93188
     2007.54512       -15.85817        12.10555
     2007.54763       -25.49718        33.49874
     2007.55424       -10.37223        12.02896
     2007.55544       -13.75724        22.53222
     2007.55943       -12.95926        11.34703
     2007.56149       -16.17928        33.50739
     2007.56417       -16.03229        26.28656
     2007.56708         1.93669        17.21017
     2007.56953        22.97667        27.09821
     2007.57227        17.42465        26.42492
     2007.57461        19.56664        23.23145
     2007.57837       -16.66239        10.92452
     2007.58071        -5.35941        12.15373
     2007.58365       -15.96643        15.94143
     2007.59132         3.68352        42.51460
     2007.59423         1.24750        23.69101
     2007.59651        68.30049        25.50703
     2007.59925       -12.30553        23.35251
     2007.60210         9.19745        21.76134
     2007.60848       -18.33759        10.95417
     2007.61043        19.84139        46.01692
     2007.61385        -8.58963        15.44851
     2007.61664         1.24235        14.79499
     2007.62303        -7.37369        20.18992
     2007.62377        46.40230        39.62379
     2007.62667        24.91928        36.44020
     2007.62937        18.62927        29.01553
     2007.63273       -12.05376        18.12189
     2007.63515        23.97523        31.44800
     2007.63792         3.09421        32.19788
     2007.64094       -13.25081        16.89515
     2007.64853         9.34214        34.12756
     2007.65132         6.39512        25.73187
     2007.65395       -32.72890        31.50359
     2007.65942       -13.86894        39.31247
     2007.66290        -2.42696        16.10079
     2007.66781       -19.12399        25.06723
     2007.69119       -27.23515        23.74907
     2007.69279        19.67984        22.94237
     2007.69770       -21.62519        40.67634
     2007.70443       -15.46224        12.80849
     2007.70597         4.79575        35.43459
     2007.70876         7.90973        31.20340
     2007.71190         3.42071        23.79478
     2007.71743         7.38467        23.28951
     2007.71977        -4.73634        22.70517
     2007.73136         1.30558        15.61652
     2007.73383       -21.67744        14.39473
     2007.73973        -1.66948        15.42010
     2007.74162        18.70651        24.39271
     2007.74566       -16.95852        11.60028
     2007.74789       -20.97953        12.95303
     2007.75017        17.56245        24.85598
     2007.75661       -24.33059        12.52064
     2007.75850        -9.11360        13.64485
     2007.76146        -6.78362        17.90816
     2007.76894        32.91233        37.30868
     2007.77162         0.04331        33.96943
     2007.77430        17.16229        53.71090
     2007.78033         4.97825        15.05936
     2007.78582        -5.38779        14.83082
     2007.78822        -4.11980        22.24314
     2007.79075       -19.08782        45.88473
     2007.79371        -9.04684        21.62915
     2007.79673         6.50914        15.28297
