# ================= DQRFIT RESULTS ================
# INPUT FILE: series/SATS.rad
# OUTPUT: LDETRENDED
# FILTER FUNCTION: f(t)
# f(t)=+line(t)+annual(t)+jumps(t)
# line(t)=+P 1+P 2*t
# annual(t)=+P 3*sin(2*pi*t+P 4)
# jumps(t)=+P 5*heav(t-2001.1600  )+P 6*heav(t-2001.7508  )
# heav(t)=(t<0?0:1)
# TOTAL OBSERVATIONS MTOT= 2087
# INITIAL TIME INTERVAL= 2003.2879 - 1997.3169 =  5.9710
# TOTAL OBSERVATIONS AFTER PREFILTER M= 2080
# TIME-SPAN= 2003.2879 - 1997.3169 =  5.9710
# OBSERVATIONS: USED M=  2080 REJECTED MTOT-M=     7 %USED=   99.6646
# N=  6 PARAMETERS
# MAXSIG= 175.00000
# MAXRES=  37.98406
# SCALE FACTOR FOR LENGTHS: SCL=  10.00000
# SCALE FACTOR FOR SIGMAS: SCLSIG=   1.00000
# CHI^2=   2453.973 DOF=  2074 CHI^2/DOF=   1.18321
# RMS=      8.886 SDEV=      8.887 MEAN=    0.13254
#  P #       PARAMETER +-    SIGMA %error PARAMETER NAME
# P 1 =     -4242.20393 +-  406.763   9.59 YZERO                              
# P 2 =         2.12002 +-    0.203   9.60 SLOPE                              
# P 3 =         6.44183 +-    0.274   4.26 ANNUAL AMPLITUDE                   
# P 4 =        -2.96066 +-    0.059   2.00 ANNUAL PHASE                       
# P 5 =         3.45846 +-    0.874  25.28 OFFSET 2001.1600                   
# P 6 =       -41.32968 +-    0.845   2.04 OFFSET 2001.7508                   
#       T            LDETRENDED       SIG_OBS
     1997.31691       -18.90107         6.74407
     1997.31964       -19.54887         6.90397
     1997.32238       -16.25468         6.77562
     1997.32481       -18.48182         7.70782
     1997.32786       -27.61529         6.94204
     1997.33060       -18.47409         6.74734
     1997.33333       -21.36590         6.64074
     1997.33607       -22.53170         6.78976
     1997.33881       -22.09350         6.76692
     1997.34155       -15.92731         6.96162
     1997.34428       -19.24311         6.93225
     1997.34702       -27.79792         6.85829
     1997.34976       -17.46072         6.60484
     1997.35250       -19.16753         6.68316
     1997.35524       -20.04533         6.81043
     1997.35797       -15.40913         6.64835
     1997.36345       -10.69474         6.87352
     1997.36619        -6.95255         6.88657
     1997.38261         0.27163         7.17809
     1997.38535         2.16082         7.78288
     1997.38809        -0.35898         7.66431
     1997.39083         4.87721         8.08419
     1997.39357        -2.95659         7.93516
     1997.39630        -5.92139         7.00731
     1997.39904       -16.14520         7.54901
     1997.40178         8.93700         8.63350
     1997.40452         3.28319         7.95039
     1997.40726        -2.14661         7.57729
     1997.40999        -5.36742         7.91667
     1997.41273        -7.44022         7.40543
     1997.41547        -2.19202         7.94713
     1997.41821       -10.95383         7.85141
     1997.42219        -3.46026        26.67063
     1997.42642       -15.71424         7.49789
     1997.42916        -1.46905         7.65996
     1997.43463        -4.88466         7.70238
     1997.43737        -9.99146         8.00369
     1997.44011        -4.79626         8.62589
     1997.44285         5.51993         8.21036
     1997.44559        -8.15987         7.71000
     1997.44832       -13.57168         7.79593
     1997.45380         0.68871         7.78832
     1997.45654        -3.94809         7.31949
     1997.45927         8.68811         7.76547
     1997.46201       -17.61170         7.56859
     1997.46475       -17.33650         7.48918
     1997.46624       -29.88667        28.71017
     1997.47023         3.53889         8.08527
     1997.47296        -5.14892         8.00152
     1997.47570        -8.23372         7.52943
     1997.47844       -22.79052         7.47178
     1997.48118        -8.29633         8.33219
     1997.48392        -0.81313         7.95039
     1997.48665        -2.71094         8.13749
     1997.48939         9.16326         8.17338
     1997.49213         2.24045         7.73828
     1997.49487        10.54065         8.18426
     1997.49760        -4.29115         7.57512
     1997.50034        -1.31696         7.87969
     1997.50308         0.04724         8.27889
     1997.50856        12.07963         8.91197
     1997.51129        12.63782         8.25823
     1997.51403         2.64202         7.81877
     1997.51677        12.76222         8.26040
     1997.51951         1.93641         8.02871
     1997.52225        -8.27339         7.71761
     1997.52498         3.11480         7.93190
     1997.52772        10.70000         7.82204
     1997.53046        14.27319         7.42283
     1997.53320        -3.56661         7.97867
     1997.53593         9.71459         7.95257
     1997.53867        19.01678         7.83291
     1997.54141         0.29198         7.70238
     1997.54415        21.66417         7.82421
     1997.54689        -2.67163         7.72196
     1997.54962         5.91156         7.60557
     1997.55236        16.46876         7.55227
     1997.55510         8.53596         7.97215
     1997.55783        -0.07184         8.28324
     1997.56057         4.77735         7.70891
     1997.56331         4.34754         7.55771
     1997.56605         8.84274         7.68172
     1997.56879         5.38893         7.55010
     1997.57153        -3.09087         7.32820
     1997.57426         5.49933         7.59361
     1997.57700         1.69652         7.70673
     1997.57974        12.42872         7.68824
     1997.58248         0.67191         7.73067
     1997.58522        -9.58389         7.41087
     1997.58795        -9.39170         7.54140
     1997.59069        16.52750         7.66975
     1997.59343        -2.62930         7.54575
     1997.59617        13.32689         7.85684
     1997.59890         8.04909         7.43480
     1997.60164         8.63828         7.62624
     1997.60438         7.38848         7.35865
     1997.60712         4.81667         7.37062
     1997.60986        18.66787         7.31732
     1997.61259        10.51207         7.49789
     1997.61533         4.42026         7.47613
     1997.61807         5.09446         7.36409
     1997.62081        28.02065         7.30427
     1997.62355         5.59385         7.56315
     1997.62627        -3.05894         7.55119
     1997.62902         1.65624         7.53487
     1997.63450         3.27363         7.79484
     1997.63723         5.01483         7.46634
     1997.63997         7.67102         7.40325
     1997.64271        29.52522         7.38476
     1997.64545         9.96241         7.34669
     1997.64819         8.79461         7.56641
     1997.65092         7.62480         7.44785
     1997.65366         3.14700         7.75242
     1997.65640        15.92320         7.41195
     1997.65914        -7.91361         7.45220
     1997.66188         8.52059         7.57512
     1997.66735        16.43998         7.59905
     1997.67009         5.80617         7.57403
     1997.67283         3.42037         7.42827
     1997.67556         3.85557         7.53596
     1997.67816         9.06205         8.03741
     1997.68378        11.61515         7.42501
     1997.68652        14.15635         7.95474
     1997.68925        23.49454         7.65887
     1997.69199         4.14674         7.83183
     1997.69473         3.63894         7.65670
     1997.70021         7.66032         7.44785
     1997.70294         2.14052         7.56424
     1997.70568         2.92072         8.00478
     1997.70842         8.47791         7.39890
     1997.71116         8.21011         7.65779
     1997.71389        -2.13069         7.44459
     1997.71663         7.46850         7.36736
     1997.71937        15.60170         7.49680
     1997.72211         1.64889         7.58056
     1997.72485         3.44309         7.94822
     1997.72758        13.29628         7.73284
     1997.73032         7.73248         7.36518
     1997.73306        18.11068         8.27889
     1997.73579         9.84888         8.02110
     1997.73854        26.75907         8.12878
     1997.74382        24.21587         8.09615
     1997.74675         6.64865         7.46308
     1997.74949        22.10785         8.31696
     1997.75222        18.92005         7.67519
     1997.75496         9.68124         7.81225
     1997.75770         2.93444         8.09180
     1997.76044        21.09763         7.75568
     1997.76318        15.77283         7.15524
     1997.76591         6.11902         7.56968
     1997.76865        11.71522         7.43371
     1997.77413        -6.65939         7.27490
     1997.77687         1.23781         7.25749
     1997.77960         5.35100         7.18353
     1997.78234        -2.37680         7.15416
     1997.78508        -8.39161         7.43915
     1997.78782        -4.51441         7.50115
     1997.79055        -4.76621         7.65887
     1997.79329         9.11498         7.62080
     1997.79603        -2.00582         7.53269
     1997.79877        -2.31763         7.50332
     1997.80150         6.59958         7.29665
     1997.80424        18.29476         7.40325
     1997.80698         6.69396         7.16177
     1997.80972         3.60116         7.23574
     1997.81246        11.32635         7.43262
     1997.81520        -3.62945         7.58273
     1997.82067         1.86294         7.33364
     1997.82341         3.50713         7.17809
     1997.82615        20.12833         8.20057
     1997.82888        11.59953         8.01348
     1997.83436         0.08491         7.44241
     1997.83710         6.99211         7.40651
     1997.83984         1.25531         7.87316
     1997.84257        -7.88850         7.63059
     1997.84531        -2.54630         7.73502
     1997.84805         2.00989         7.65017
     1997.85079         2.60509         7.49462
     1997.85352         5.14429         7.33472
     1997.85626        -1.46852         7.71870
     1997.85900         0.79368         7.48266
     1997.86121        22.42400        10.34671
     1997.86721        15.07126         7.63494
     1997.86995         5.31546         7.59143
     1997.87269         2.37766         7.11608
     1997.87543         7.45285         7.67084
     1997.87817        14.57205         8.37244
     1997.88090         2.62924         7.55227
     1997.88364         3.93544         8.07657
     1997.88638         6.57463         7.93190
     1997.88912         4.04983         8.23321
     1997.89185         2.86203         7.96997
     1997.89459        11.98122         7.67193
     1997.89733        17.39742         7.67084
     1997.90007         3.51261         7.93734
     1997.90281         0.38981         8.04068
     1997.90554         9.17500         7.76656
     1997.90828        -1.97380         7.52508
     1997.91102        -5.30060         7.67737
     1997.91376        -0.50741         7.65343
     1997.91650        -5.90721         7.50006
     1997.91923        -1.03602         7.27490
     1997.92197       -13.07982         8.14836
     1997.92471         9.42837         7.38258
     1997.92745         3.24057         7.56968
     1997.93018        -6.14323         7.56968
     1997.93292         6.55796         7.42609
     1997.93566         1.58316         7.88730
     1997.93840       -11.19865         7.03233
     1997.94114         2.89455         7.85467
     1997.94387        -6.93326         7.38041
     1997.94661        -9.34506         7.37062
     1997.94935       -10.79086         7.59035
     1997.95209        -2.74667         7.33690
     1997.95483         1.72653         7.55554
     1997.95756        -2.34028         7.25205
     1997.96030         5.81392         7.27055
     1997.96304        -2.52189         7.37388
     1997.96578        -1.93469         7.00622
     1997.97125         1.05670         7.28360
     1997.97332        -3.88768        10.16071
     1997.97673       -14.25591         7.54792
     1997.97947         7.82329         7.27816
     1997.98120        37.57762        15.40477
     1997.98494         6.40868         7.38802
     1997.98768         1.88988         7.05735
     1997.99042        12.70007         7.11500
     1997.99589         0.45046         7.16721
     1997.99863         2.38166         7.27490
     1998.00411         6.05405         7.44241
     1998.00684         5.10525         7.51311
     1998.00958         2.17344         7.20746
     1998.01232       -10.28636         7.18896
     1998.01506        -1.08017         7.40434
     1998.01780         3.06903         7.43153
     1998.02053         6.86522         7.38150
     1998.02327        -0.22458         7.26402
     1998.02601        -9.80038         7.11826
     1998.02875        -8.47419         7.41304
     1998.03149       -16.37399         7.77526
     1998.03696         0.05140         7.82965
     1998.03970        17.31359         7.58708
     1998.04244         5.62879         7.74589
     1998.04517         4.19499         7.46417
     1998.05886        28.20496         7.89274
     1998.06160        22.94016         7.80572
     1998.06434         4.04635         7.47178
     1998.06708         8.36355         7.24335
     1998.06982         3.18075         7.19875
     1998.07255        -6.87906         7.49897
     1998.07529         1.88714         7.29774
     1998.07803        -0.73867         7.49789
     1998.08044         0.09922         8.59543
     1998.09828       -15.24759        18.89863
     1998.09993         4.94490         7.14545
     1998.10267         0.54709         7.27707
     1998.10541         1.58629         7.42827
     1998.10815        -4.48351         7.32493
     1998.11088        -3.20532         7.47287
     1998.11362         3.70488         7.60122
     1998.11636        11.53507         7.24009
     1998.11910        -3.49373         7.27381
     1998.12183         0.37346         7.25967
     1998.12457         6.33566         7.19658
     1998.12731        -6.33314         7.13784
     1998.13005        -3.75895         7.24988
     1998.13279         0.74825         7.79049
     1998.13552         4.17244         7.76547
     1998.13826         1.01564         7.23139
     1998.14100         4.47483         7.15089
     1998.14374       -11.10997         7.29230
     1998.14648        -4.71277         6.81695
     1998.14921       -13.05858         6.94531
     1998.15195         0.01662         7.23247
     1998.15469        -7.36819         7.28686
     1998.15743       -17.70099         7.47287
     1998.16016        -3.23880         7.66540
     1998.16290       -11.91660         7.31406
     1998.16564        -1.32840         7.82748
     1998.16838         1.51479         7.22812
     1998.17112        -0.40801         7.02798
     1998.17659        -6.21462         7.04538
     1998.17933        -1.20743         7.40760
     1998.18207        -9.58923         7.34995
     1998.18480        -0.80603         7.23683
     1998.18754        -4.12684         7.80354
     1998.19028       -10.11764         7.53269
     1998.19302        -5.28845         7.22704
     1998.19576        -9.79925         7.28142
     1998.19849        -7.44706         7.39672
     1998.20123        -1.17386         7.47504
     1998.20397         0.58434         7.43588
     1998.20671        -4.00547         7.36518
     1998.20945        -4.08027         7.24009
     1998.21145        -3.17052        10.45984
     1998.21492        -2.35988         7.38694
     1998.21766         7.54331         7.12587
     1998.22040        -4.55249         7.60013
     1998.22313         6.60171         7.49571
     1998.22587        -2.76110         7.55880
     1998.22861        -5.04790         7.14002
     1998.23135        -5.72971         7.11608
     1998.23409        -4.32651         7.38476
     1998.23682         1.35968         7.18244
     1998.23956        -5.39712         7.28142
     1998.24230        -6.62892         7.65126
     1998.24504        -5.84373         8.06787
     1998.24778         1.84747         7.76003
     1998.25051         3.87466         7.12587
     1998.25325        -6.09314         7.02471
     1998.25599        -0.49795         7.44567
     1998.25873        -3.74375         7.44132
     1998.26146        -8.49855         7.59252
     1998.26397        -9.39888         8.56497
     1998.26694        -5.31416         7.42392
     1998.26968        -9.79297         7.09433
     1998.27242         3.72323         7.60557
     1998.27515         1.07943         8.06896
     1998.27789         8.98262         7.54031
     1998.28063        14.81781         7.23030
     1998.28337        -1.58199         7.40978
     1998.28611        -3.16079         7.42609
     1998.28884        -3.99160         7.50224
     1998.29158         2.15060         7.29448
     1998.29432       -10.84221         7.87316
     1998.29706        -9.92201         7.55336
     1998.29979        -4.46482         7.23791
     1998.30253         8.87338         7.66649
     1998.30527        -0.49642         7.34560
     1998.30801         7.49477         7.46417
     1998.31348        -0.21984         7.36518
     1998.31622         2.45136         7.25205
     1998.31896        -1.92145         7.17156
     1998.32050        15.85928        20.46826
     1998.32444        -2.16905         7.45002
     1998.32717        -0.62186         7.85358
     1998.33265         5.39853         7.45873
     1998.33539         2.58973         7.26728
     1998.33812         7.98392         8.00260
     1998.34086         0.18012         7.11173
     1998.34634         7.56051         7.30970
     1998.34908         6.32371         7.31406
     1998.35181         8.08690         7.20310
     1998.35455         0.74810         7.23356
     1998.35728         7.62330         7.00078
     1998.36003         9.25949         7.13893
     1998.36277         7.14469         7.26402
     1998.36550        14.24188         7.27272
     1998.36824         2.34908         7.18353
     1998.37098        10.64327         7.33690
     1998.37372         8.09947         7.13131
     1998.37645         3.03566         7.57512
     1998.37919        -2.32814         7.33581
     1998.38193         4.11906         7.23247
     1998.38467         5.60925         7.52943
     1998.38741         2.16745         7.50115
     1998.39014         2.41364         7.58491
     1998.39288         4.36684         7.76765
     1998.39562         1.35603         7.50006
     1998.39836        -2.42377         7.36844
     1998.40110         3.96443         7.57838
     1998.40383         3.36962         7.78397
     1998.40657         6.55082         7.77961
     1998.40931        -8.86499         7.54466
     1998.41205        -7.00579         7.30209
     1998.41478        -2.99860         7.41630
     1998.41752        -3.10440         7.14872
     1998.42026         1.60080         7.38258
     1998.42300        -2.11901         7.21833
     1998.42574        -4.33381         7.53705
     1998.42847         5.91438         7.36192
     1998.43121         1.45058         7.39237
     1998.43395         5.19377         7.34234
     1998.43669        -1.26703         7.57512
     1998.43943         9.79717         7.50441
     1998.44216        -2.95364         7.51638
     1998.44490         8.26756         7.48592
     1998.44764        -1.08125         7.33907
     1998.45038        -1.30605         7.26619
     1998.45311        -1.86086         7.90035
     1998.45585        -2.90466         7.45438
     1998.45859        -1.17346         7.24226
     1998.46133        -0.59827         7.00187
     1998.46407        -4.54007         7.06605
     1998.46680        -2.19388         7.57838
     1998.46954         3.08532         7.56533
     1998.47228         0.92851         7.51747
     1998.47775         9.94791         8.15706
     1998.48049        -0.78090         7.56859
     1998.48323         3.59830         7.61319
     1998.48597        -3.20951         7.64256
     1998.48871        -5.85931         7.60231
     1998.49144        -8.60812         7.77744
     1998.49418        -6.57692         7.28360
     1998.49692         1.51127         7.82639
     1998.49966         5.89147         7.18570
     1998.50240         7.38867         7.70782
     1998.50513         7.06386         7.73610
     1998.50787        -4.58194         7.40760
     1998.51061         3.68825         7.98738
     1998.51335        -2.68955         7.73175
     1998.51608         1.95265         7.83291
     1998.51882         7.11384         8.07222
     1998.52156        -7.85896         8.17664
     1998.52429        -5.68576         7.36083
     1998.52704        -9.30357         7.67084
     1998.52977         0.17662         7.99390
     1998.53251        -2.61518         7.47613
     1998.53525         7.01701         7.63494
     1998.53799        -8.01479         7.57077
     1998.54073        11.53540         7.74807
     1998.54346         5.00160         7.31949
     1998.54620         5.03080         7.65779
     1998.54894        -0.74901         7.74263
     1998.55168        -1.52881         8.07657
     1998.55441         6.90039         8.18208
     1998.55715         5.15859         7.86446
     1998.55989         8.55378         7.99716
     1998.56263        -1.57103         8.01783
     1998.56537       -12.61583         7.72088
     1998.56810         6.85436         8.05808
     1998.57084        -5.65144         7.98302
     1998.57358        -1.74325         7.65017
     1998.57632        10.99895         7.92972
     1998.57905        -2.70084         7.96344
     1998.58179         2.84435         7.81986
     1998.58453        -1.03145         8.17556
     1998.58727         0.22773         7.63277
     1998.59000         7.91694         7.88948
     1998.59274         1.14912         7.99934
     1998.59548         4.90432         7.75133
     1998.59822         1.26253         7.89927
     1998.60096         9.68871         7.40434
     1998.60369         2.76092         7.54248
     1998.60643        20.13611         8.06134
     1998.60917         8.23930         7.82748
     1998.61191         3.06649         7.68716
     1998.61465        -0.04931         7.57185
     1998.61739         4.18089         7.60231
     1998.62012        12.84208         7.33690
     1998.62286        -4.18571         8.05046
     1998.62560        -6.61453         7.27816
     1998.62834        -7.65033         7.61754
     1998.63107         8.76287         7.65779
     1998.63381       -10.05294         7.95148
     1998.63655        -6.16773         7.87751
     1998.63928        -1.29954         7.60992
     1998.64203         4.15365         7.31406
     1998.64476         2.87284         7.64800
     1998.64750        -4.87695         7.37606
     1998.65023        -0.28876         7.72414
     1998.65298         4.15743         7.86120
     1998.65572         2.06663         7.71761
     1998.65845        -4.72818         6.83762
     1998.66119         8.08802         7.40978
     1998.66393         8.24121         8.21798
     1998.66633        17.92612         9.35251
     1998.66940        11.69760         7.62624
     1998.67214        12.02280         7.61971
     1998.67762         6.97619         7.51203
     1998.68036         3.40439         7.60449
     1998.68309        10.90558         7.69477
     1998.68583        16.39378         7.74154
     1998.68857        18.08997         7.66758
     1998.69131        15.98717         7.46090
     1998.69405         6.66336         7.87751
     1998.69678         7.29556         7.70891
     1998.69952         2.28076         7.70782
     1998.70226        14.89695         8.04829
     1998.70500         6.08115         7.92972
     1998.70773        20.28234         8.14401
     1998.71047         5.55354         8.17664
     1998.71321        17.71073         8.48013
     1998.71595         9.96593         7.79484
     1998.71869         9.80713         7.88730
     1998.72142         3.87332         7.80354
     1998.72416         3.94752         7.96236
     1998.72690         0.61171         8.06461
     1998.72964        10.93991         7.73067
     1998.73238        14.63910         8.74228
     1998.73785         3.24950         7.79811
     1998.74059         3.99869         7.54792
     1998.74333        12.20389         7.69042
     1998.74606         1.66508         7.87860
     1998.74880        14.43628         7.67301
     1998.75154        -7.55753         7.99064
     1998.75428         3.14367         7.53813
     1998.75702         5.27387         7.55010
     1998.75975         1.82806         8.27781
     1998.76249        10.62026         7.43371
     1998.76523        11.11645         8.14619
     1998.76797         7.43065         8.48992
     1998.77070        -0.42716         7.92320
     1998.77344         9.18504         7.52726
     1998.77618         1.81724         7.44459
     1998.77892        13.23143         7.94930
     1998.78166         4.59663         7.83183
     1998.78439         4.86882         7.84053
     1998.78713         4.98902         7.60666
     1998.78987        -4.56879         7.32276
     1998.79261       -10.90359         7.49354
     1998.79535        -6.27339         7.43806
     1998.79808         5.96880         7.53705
     1998.80082       -11.76000         7.73284
     1998.80356         5.33219         7.42066
     1998.80630         6.67439         7.86120
     1998.81177        -0.90522         7.99281
     1998.81451         8.63698         7.60013
     1998.81725         5.20517         7.52182
     1998.81999         7.87437         7.56424
     1998.82272        -0.31044         7.62950
     1998.82546         2.78576         7.49789
     1998.82820         4.50295         7.61319
     1998.83094         6.58315         7.75133
     1998.83368         6.52135         7.58599
     1998.83641        -0.76946         7.63168
     1998.83915         4.97574         7.55227
     1998.84189        19.78693         7.18353
     1998.84463        11.63513         7.49680
     1998.84736        -3.27368         7.45873
     1998.85010        11.49652         7.37062
     1998.85284         2.88772         7.73284
     1998.85558        -1.82309         7.57947
     1998.85832         6.27811         7.48157
     1998.86105         6.03630         7.30644
     1998.86379         9.05750         7.59035
     1998.86653        14.90969         7.88404
     1998.86927        21.37589         7.92102
     1998.87201        16.26609         7.11717
     1998.87474        12.75329         7.68498
     1998.87748        15.12048         7.61210
     1998.88022        11.75167         7.36192
     1998.88296         1.40187         7.29665
     1998.88569        18.17806         7.31188
     1998.88843        25.21726         7.57838
     1998.89117        15.91846         7.47831
     1998.89391         3.49065         7.82639
     1998.89665        -2.70115         7.44894
     1998.90117         9.93726        14.32680
     1998.90486        24.57343         7.46852
     1998.90760        14.12463         7.54357
     1998.91034        19.45982         7.08019
     1998.91307        10.70402         7.50332
     1998.91581         9.92522         7.41304
     1998.91855        21.53841         7.77091
     1998.92129        13.58361         7.21181
     1998.92402         9.69480         7.16938
     1998.92676         1.15000         7.64147
     1998.92950        10.71419         7.39672
     1998.93224        13.87339         7.67193
     1998.93498         3.81559         7.55989
     1998.93771        -5.54822         7.47939
     1998.94045        -1.86502         7.54248
     1998.94319         7.01017         7.52834
     1998.94593        11.78337         7.64582
     1998.94867        -4.09544         7.13675
     1998.95140         5.05576         7.76112
     1998.95414        -3.21004         8.05373
     1998.95688         9.75215         8.01566
     1998.95962         3.40335         7.59361
     1998.96235         3.90054         7.51529
     1998.96509        -9.17126         7.28577
     1998.96783        -6.69507         7.52617
     1998.97057         4.38313         6.88657
     1998.97331        10.68933         7.28577
     1998.97604         2.71052         7.17374
     1998.97878         2.63272         7.46417
     1998.98152        25.18691         7.91232
     1998.98426         1.84411         7.46852
     1998.98700         4.88930         7.60992
     1998.98973         8.47250         7.62950
     1998.99247        -6.77730         7.60557
     1998.99521        -9.42911         7.92102
     1998.99795         6.05409         7.39129
     1999.00342        -8.52752         8.41051
     1999.00616       -13.95033         7.83727
     1999.00890       -24.95913         8.15924
     1999.01164       -10.22693         8.04611
     1999.01437        -7.46174         7.97106
     1999.01711       -11.65154         7.99825
     1999.01985        -3.59435         7.72958
     1999.02259        -5.58515         8.88151
     1999.02533        -4.71396         8.20275
     1999.02806        -5.74176         8.30500
     1999.03080         2.96944         8.65308
     1999.03354        -2.91237         8.17121
     1999.03901       -13.18898         7.76439
     1999.04175        -9.24778         7.57947
     1999.04449        -0.90359         7.61101
     1999.04723         2.94661         7.77744
     1999.04997        -2.06519         7.73175
     1999.05270        -1.51500         7.80790
     1999.05544        -2.84180         8.10594
     1999.05818        -1.37161         7.44024
     1999.06092        -1.41441         7.75895
     1999.06366       -10.46322         7.65887
     1999.06639       -14.52902         8.01022
     1999.06913       -18.97382         7.62407
     1999.07187       -17.25063         7.41957
     1999.07461        -3.07143         8.11791
     1999.07734        -1.79324         7.81551
     1999.08008       -10.52204         7.93843
     1999.08282         6.45215         7.90253
     1999.08556        -7.19265         7.26184
     1999.08830        -9.31645         7.65126
     1999.09103        -4.69126         8.00260
     1999.09377        -1.73906         8.05699
     1999.09651        -6.30087         8.14836
     1999.09925        -1.08167         8.02436
     1999.10198        -0.74048         8.23973
     1999.10472        -4.99228         7.54140
     1999.10746       -17.69808         7.76221
     1999.11020       -20.32489         7.79049
     1999.11294       -19.86469         8.22233
     1999.11567       -11.34750         8.83365
     1999.11841       -16.95330         8.18426
     1999.12115       -21.62611         7.85249
     1999.12389       -11.89191         8.24844
     1999.12663       -17.76072         8.34960
     1999.12936        13.26248         8.93372
     1999.13210         0.63668         8.54213
     1999.13484         0.01887         8.28542
     1999.13758       -15.57993         8.37026
     1999.14031       -15.29374         7.94495
     1999.14305         1.98846         8.35068
     1999.14579       -19.77435         7.83509
     1999.14853       -11.06215         8.20275
     1999.15127       -10.97195         8.19296
     1999.15400       -18.68676         7.80898
     1999.15674        -9.89856         8.28324
     1999.15948       -14.72937         8.13205
     1999.16222       -18.54817         8.43335
     1999.16496       -25.67698         8.09941
     1999.16728       -26.92389         9.12843
     1999.17062       -21.95499         8.20819
     1999.17317        -8.08139         7.79049
     1999.17591       -21.88919         7.87207
     1999.17864       -17.82500         7.87534
     1999.18138       -15.86780         7.69803
     1999.18412       -14.99761         8.04394
     1999.18686       -18.11041         8.03632
     1999.18960       -18.12221         7.79267
     1999.19233       -23.08202         7.73502
     1999.19507       -14.36082         7.86446
     1999.19781       -12.61763         8.27128
     1999.20055       -19.91443         7.97867
     1999.20329        -8.35324         7.52617
     1999.20602       -15.74804         8.12770
     1999.20876         1.80016         7.73393
     1999.21150       -22.35065         8.13531
     1999.21424       -14.74145         8.54431
     1999.21697        -2.46626         8.27998
     1999.21971       -15.36306         8.26693
     1999.22245       -12.97687         8.13422
     1999.22519       -13.95367         8.18970
     1999.22793       -18.68247         7.86663
     1999.23066       -15.27328         7.89057
     1999.23340       -23.01308         8.02218
     1999.23614       -17.23889         8.14401
     1999.23888       -14.99269         8.16033
     1999.24162       -17.61050         7.79702
     1999.24435       -16.22330         7.85141
     1999.24709        -8.88710         8.19731
     1999.24983       -24.77891         8.29847
     1999.25257       -13.82171         8.31261
     1999.25530       -17.00852         7.86120
     1999.25804       -10.40532         8.09180
     1999.26078       -27.25713         7.88186
     1999.26352       -22.05293         8.03959
     1999.26626       -20.96373         8.08419
     1999.26899       -22.42754         8.37788
     1999.27173       -17.25034         7.77744
     1999.27447       -30.66715         7.93408
     1999.27721       -23.75795         7.59143
     1999.27995       -13.36376         7.49354
     1999.28268       -21.28156         8.21798
     1999.28542       -14.56836         7.79919
     1999.28816        -8.60517         8.07440
     1999.29090        -5.27497         8.52255
     1999.29363        -5.45578         7.87425
     1999.29637        -6.71258         8.13640
     1999.29911        -8.67039         7.88404
     1999.30185       -12.04019         8.16033
     1999.30459       -20.76499         7.77961
     1999.30732       -19.10380         8.46707
     1999.31006        -6.74560         8.25496
     1999.31280        -5.03841         8.40942
     1999.31554        -5.76821         7.97541
     1999.31828       -11.32802         8.01131
     1999.32101       -20.20782         8.06352
     1999.32375       -10.74262         8.06787
     1999.32649        -3.57443         7.76982
     1999.32923       -13.97823         7.98629
     1999.33196        -3.25404         8.17991
     1999.33470        -4.29184         7.86772
     1999.33744       -12.69365         8.15054
     1999.34018        -7.03445         8.41595
     1999.34202       -13.91235        13.89388
     1999.34565        -7.19806         7.93625
     1999.34839        -3.69186         8.24952
     1999.35113       -13.00667         7.88621
     1999.35387        -9.61747         8.10485
     1999.35661       -18.44228         8.26584
     1999.35934       -18.48408         8.07113
     1999.36208        -1.31989         8.22015
     1999.36482       -14.86869         8.08962
     1999.36756       -21.40849         7.92211
     1999.37029       -19.87130         7.88839
     1999.37303        -8.01310         8.05808
     1999.37577       -17.06391         7.96127
     1999.37851       -11.98671         7.98194
     1999.38125       -15.12052         8.00152
     1999.38398        -8.33432         8.28542
     1999.38672       -18.62612         8.22124
     1999.38946       -12.29593         7.99934
     1999.39220       -18.68773         7.91885
     1999.39493       -13.75954         8.14945
     1999.39767       -16.44534         8.01131
     1999.40041        -9.52515         8.12117
     1999.40315        -6.21495         8.23756
     1999.40589        -9.63775         8.17991
     1999.40862       -20.89256         8.21145
     1999.41136       -21.04336         8.03524
     1999.41684        -0.36997         8.33654
     1999.41958         5.57022         8.52255
     1999.42231        -4.98458         8.06134
     1999.42505        10.31262         8.49427
     1999.42779         5.18681         8.35939
     1999.43053         0.90001         8.23538
     1999.43326        -4.50080         8.16250
     1999.43600        -9.53560         8.13096
     1999.43874        -6.83241         8.05590
     1999.44148        10.01079         8.90870
     1999.44422         3.35799         8.13966
     1999.44695        -0.92482         8.64220
     1999.44969        -6.83062         9.36121
     1999.45243        -5.99443         8.35612
     1999.45517        -6.95923         7.97323
     1999.45791         3.01296         8.40181
     1999.46064         4.83216         7.97106
     1999.46612         6.65155         8.56497
     1999.46886         0.26975         8.69224
     1999.47159         4.47594         8.42900
     1999.47433         6.01914         8.09506
     1999.47707        -5.22367         8.40181
     1999.47981        -1.06847         8.12117
     1999.48255        -4.29727         7.79376
     1999.48528         6.37592         8.55627
     1999.48802        -8.66688         8.06134
     1999.49076         1.72031         8.46164
     1999.49350         1.01551         8.30174
     1999.49624         1.34070         8.84344
     1999.49897         3.82490         8.28651
     1999.50171         8.29710         8.69659
     1999.50445         1.47129         8.25823
     1999.50719        11.23649         8.57803
     1999.50992        11.39868         8.31914
     1999.51266         8.66188         8.75424
     1999.51540         5.24707         8.62697
     1999.51814         3.74227         8.68571
     1999.52088        -0.24953         8.67592
     1999.52361        -2.91134         8.44967
     1999.52635        -0.00814         8.34307
     1999.52909         4.82605         8.53234
     1999.53183        -3.88075         8.05590
     1999.53457         0.00644         8.23538
     1999.53730         8.21264         8.87607
     1999.54004         8.83583         8.34090
     1999.54278         2.87603         8.25714
     1999.54552       -10.62677         8.42574
     1999.54825        -4.99258         8.52473
     1999.55099        -4.97338         8.05155
     1999.55373        -9.48519         7.97432
     1999.55647         4.32101         8.01348
     1999.55921        -1.60580         8.54974
     1999.56194         1.88740         8.36374
     1999.57016         3.33299         8.20057
     1999.57290         1.84518         8.28107
     1999.57563         3.63638         8.64438
     1999.57837         4.96257         8.61175
     1999.58111         3.18377         8.49753
     1999.58385         4.91097         8.54648
     1999.58658        -0.75384         8.09071
     1999.58932        -4.17564         8.77926
     1999.59206         6.42455         8.95656
     1999.59480         8.50375         8.98593
     1999.59754         3.20094         8.49318
     1999.60027         3.96214         8.63241
     1999.60301         1.85134         9.23394
     1999.60575        23.51853         9.12299
     1999.60821        10.10632         9.81371
     1999.61123         7.93092         8.70312
     1999.61396         5.93012         8.76403
     1999.61670         2.27931         8.57041
     1999.61944         2.27851         8.86519
     1999.62218        12.13571         8.71291
     1999.62491        10.35990         9.78543
     1999.62765         7.40310         8.44967
     1999.63039        15.18229         9.11102
     1999.63313         1.29549         9.05772
     1999.63587        16.12268         8.66505
     1999.63860         0.21588         9.14148
     1999.64134         0.60308         9.29050
     1999.64408        12.85927        10.11720
     1999.64682         8.57047         9.54939
     1999.64956        17.74766         9.07839
     1999.65229         9.32086         9.49935
     1999.65503         3.43105         8.55083
     1999.65777        13.76525         9.36556
     1999.66051        -2.80555         9.36773
     1999.66870        -0.75292         9.72996
     1999.67108        -2.48398        10.53489
     1999.67693       -13.05238         9.11538
     1999.67967         9.76782         9.03271
     1999.68241        12.02901         9.40907
     1999.68515         4.34221         9.68753
     1999.68789         4.34740         8.66178
     1999.69062        -0.92740         8.44532
     1999.69336         7.53379         8.92176
     1999.69610        -0.21101         8.56715
     1999.69884        -2.28681         8.53560
     1999.70157        12.87638         9.15453
     1999.70431        15.26758         8.62045
     1999.70705        14.35477         9.11755
     1999.70979         5.11297         8.61066
     1999.71253        10.78016         8.80319
     1999.71526         4.44436         9.22959
     1999.71800        15.70756         8.63241
     1999.72074         7.10975         9.09580
     1999.72348        10.79495         8.95765
     1999.72621        34.51014        10.38587
     1999.72895        10.90534         9.16976
     1999.73169        18.13453         8.68027
     1999.73443        -1.32227         9.42974
     1999.73717         6.31593         8.65634
     1999.73990         0.44812         8.64982
     1999.74264         3.12832         8.96200
     1999.74538         4.95251         9.07404
     1999.74812         8.04671         9.73648
     1999.75086         8.49690         9.66578
     1999.75359         8.56610         8.84453
     1999.75633        10.96329         8.99137
     1999.75907        18.86249         9.02400
     1999.76181        11.70969         8.83147
     1999.76454         8.33688         8.90326
     1999.76728         9.13408         9.01965
     1999.77002         8.06527         8.75859
     1999.77276        -1.21853         8.44641
     1999.77550         3.34666         8.59325
     1999.77823        14.75786         9.13931
     1999.78097        21.29406         9.49174
     1999.78371         0.56025         8.76403
     1999.78645        10.44045         9.09145
     1999.78919         1.67064         8.47143
     1999.79192        -7.50216         8.79775
     1999.79466         1.16303         8.87825
     1999.79740        10.56523         9.16868
     1999.80014        -7.26557         8.74663
     1999.80287        -0.18538         9.03923
     1999.80561        12.49882         9.02727
     1999.80835         6.52601         8.83474
     1999.81109         8.65421         8.96853
     1999.81383         2.01640         9.08601
     1999.81656         2.86060         8.67919
     1999.81930        18.27280         9.35033
     1999.82204        13.46599         9.10559
     1999.82478         4.68419         9.06969
     1999.82752         1.54038         8.82168
     1999.83025         3.89558         9.15997
     1999.83299        -1.73123         8.62697
     1999.83573        -3.61303         8.81298
     1999.83847         9.61817         9.26113
     1999.84120        11.05236         8.93372
     1999.84394        12.55556         8.55192
     1999.84668        15.62375         8.65852
     1999.84942        11.97295         9.03162
     1999.85216        11.70714         8.28542
     1999.85489        22.01634         8.82821
     1999.85763        11.19754         8.48122
     1999.86037        24.16773         8.54431
     1999.86311        16.80193         8.95330
     1999.86585        -3.85688         8.90653
     1999.86858         1.02232         8.40834
     1999.87132       -11.71449         8.22777
     1999.87406        17.11471         8.59978
     1999.87680         7.63891         8.23321
     1999.87953        -3.42390         8.47034
     1999.88227         7.35330         9.05337
     1999.88501         9.31249         8.73140
     1999.88775        -3.63631         8.15598
     1999.89049         0.48688         8.62480
     1999.89322        -2.08592         8.46707
     1999.89596       -16.72472         8.66613
     1999.89870         5.09947         8.95112
     1999.90144        -8.59333         8.98593
     1999.90418        -7.58514         8.78470
     1999.90691        -3.36694         8.26149
     1999.90965        -7.53375         8.72378
     1999.91239        -2.67255         8.71726
     1999.91513         9.09865         9.33293
     1999.91786        -8.35916         8.41051
     1999.92060        -8.16196         8.31044
     1999.92334       -15.30477         9.01639
     1999.92608         5.39143         8.78252
     1999.92882        -9.61638         8.88151
     1999.93155       -12.87418         8.09941
     1999.93429        -7.49798         9.02727
     1999.93703         4.51621         8.81407
     1999.93977       -11.84259         8.38005
     1999.94251         1.37860         8.65526
     1999.94524       -11.45720         8.43879
     1999.94798         1.00099         9.59290
     1999.95072        -0.69681         9.08274
     1999.95346         7.50939         8.66940
     1999.95619       -16.74742         8.77926
     1999.95893         1.99078         9.83112
     1999.96167       -11.83803         9.18390
     1999.96441         3.69217         8.49644
     1999.96715        -5.61464         8.73575
     1999.96988        -7.05544         9.26875
     1999.97262        -6.65925         8.68354
     1999.97536        -9.35005         8.86628
     1999.97810        -6.81485         8.64003
     1999.98084         2.51834         8.50406
     1999.98357        -4.86146         8.11682
     1999.98905        -1.14207         8.65526
     1999.99179        -1.88688         8.71508
     1999.99452         6.28332         8.28760
     1999.99726         4.10852         8.26693
     2000.00274        12.37791         8.19514
     2000.00548         5.80910         8.19405
     2000.00821         3.56130         8.36809
     2000.01095         1.50449         8.28433
     2000.01643       -12.81211         8.41704
     2000.01916         5.27908         8.43335
     2000.02190         1.15428         7.82856
     2000.02464       -25.11753         7.96780
     2000.02738        -3.36033         8.22015
     2000.03012         6.25786         8.34851
     2000.03285        -5.72094         8.28760
     2000.03559         7.30126         8.27237
     2000.03833         1.28445         8.59543
     2000.04107        -1.56635         8.13205
     2000.04381       -18.44316         7.91450
     2000.04654        -1.77696         8.01674
     2000.04928         0.00723         8.48665
     2000.05202        -2.44257         8.57694
     2000.05749         1.06582         8.04611
     2000.06023        -8.72898         8.38114
     2000.06297        -0.84179         7.82748
     2000.06571         8.17841         8.59543
     2000.06845         5.43460         8.38767
     2000.07118        -2.43420         8.41813
     2000.07392        -4.98900         8.39637
     2000.07666        -0.50281         8.57694
     2000.07940         7.75139         8.79340
     2000.08214       -10.35942         8.77273
     2000.08487        -1.76622         8.24735
     2000.08761        -3.24203         8.74663
     2000.09035        -4.84983         8.31696
     2000.09309         3.06637         8.08527
     2000.09582       -10.96844         8.47578
     2000.09856        -4.32424         8.30391
     2000.10130        -1.61505         8.67701
     2000.10404         2.47015         8.41051
     2000.10678         3.10134         8.05482
     2000.10951         3.02654         8.57911
     2000.11225         3.95974         7.95257
     2000.11499       -11.63907         8.39963
     2000.11773        -7.74687         7.65017
     2000.12047         8.01132         8.92393
     2000.12320        -8.45248         7.98302
     2000.12594       -14.42329         8.54213
     2000.12868        -5.64209         7.83727
     2000.13142        -6.27989         7.80028
     2000.13415         1.30130         7.82530
     2000.13689        -8.42450         8.78144
     2000.13963        11.44169         8.85540
     2000.14237         9.09089         8.69550
     2000.14511         3.30608         8.35068
     2000.14784        -3.71772         8.25605
     2000.15058         3.85548         8.19840
     2000.15332         5.56167         8.43553
     2000.15606        17.60487         8.27019
     2000.15880         4.41806         8.95221
     2000.16153        -1.63574         8.45076
     2000.16427        -1.85255         8.59543
     2000.16701         1.87065         8.88695
     2000.16918         1.05805        10.99828
     2000.17248         6.41004         8.75750
     2000.17522        14.83024         8.79340
     2000.17796        -6.79357         8.87825
     2000.18070        10.93863         8.49101
     2000.18344         4.22382         8.75750
     2000.18617         1.94802         8.68680
     2000.18891         1.95121         8.93807
     2000.19165        -3.81059         9.30900
     2000.19439       -19.12739         9.31226
     2000.19713        -7.68720         8.77708
     2000.19986        -7.22600         9.28833
     2000.20260       -10.22281         8.70856
     2000.20534         1.35539         8.95656
     2000.20808         0.55258         8.84888
     2000.21081         8.41378         8.92828
     2000.21355         0.80898         8.65961
     2000.21629        -6.74283         9.22306
     2000.21903        -4.36263         8.65417
     2000.22177         5.86056         8.85105
     2000.22450        -5.35724         8.96527
     2000.22724       -15.59205         9.03488
     2000.22998        -4.35185         8.65852
     2000.23272         1.92935         8.91414
     2000.23546         2.30854         9.46890
     2000.23819         2.78874         9.02944
     2000.24093        -5.87007         9.07078
     2000.24367        -0.30187         9.10450
     2000.24641       -20.68268        10.00081
     2000.24914       -14.27348         9.34489
     2000.25188         7.67572         9.47433
     2000.25462        -7.19609         8.76621
     2000.25736        -0.15889         8.63024
     2000.26010         0.00130         8.94786
     2000.26283         0.51150         9.48956
     2000.26557        -3.36131         9.28615
     2000.26831        -7.65811         9.05664
     2000.27105         4.13709         8.62480
     2000.27379       -14.68172         9.42974
     2000.27652        -0.60752         9.21436
     2000.27926        -7.79533         9.62227
     2000.28200        -8.41513         9.98123
     2000.28474         4.69306         8.96853
     2000.28747         7.89626         9.62444
     2000.29021         2.59146         9.31770
     2000.29295        10.07365         9.19152
     2000.29569         5.86985         9.04467
     2000.29843         9.79004         9.28289
     2000.30116         7.56924         9.24482
     2000.30390         8.42043         9.29268
     2000.30664         8.81063         9.40363
     2000.30938        15.55683         8.95221
     2000.31211        -0.15098         9.57114
     2000.31485         8.02522         9.11973
     2000.31759        -1.53559         8.84779
     2000.32033         0.10861         9.64620
     2000.32307        -4.42120         9.62336
     2000.32580        -8.99400         9.24156
     2000.32854         0.07520         9.52872
     2000.33128        13.35839         9.58746
     2000.33402        23.52459         9.39928
     2000.33676         8.31578         9.62771
     2000.34223         1.52417         9.51676
     2000.34497         4.25137         9.05120
     2000.34771        11.45657         9.19696
     2000.35044        -4.02524         8.96853
     2000.35318         6.58496         9.53634
     2000.35592         2.41715         9.09253
     2000.35866         8.95135         9.15997
     2000.36140         1.81054         9.82350
     2000.36413         2.07874         9.33837
     2000.36687         5.38694         8.85758
     2000.36961        -7.57087         9.45911
     2000.37235       -10.05767         9.29486
     2000.37509       -11.29448         9.40037
     2000.37782         4.07372         8.99028
     2000.38056        -4.55809         9.07404
     2000.38330        -0.50889         8.75750
     2000.38604         3.20230         9.89747
     2000.38877        -3.65350        10.17158
     2000.39151         5.81170        10.14113
     2000.39425        13.92289         9.95621
     2000.39699         9.99009         9.60704
     2000.39973        21.10428         9.30029
     2000.40246        14.53848         9.67883
     2000.40520         1.10367         9.31335
     2000.40794         0.27787         9.11320
     2000.41068        -6.75193         9.15889
     2000.41342        -1.88974         9.14257
     2000.41615         7.23746         9.76041
     2000.41889        -9.90935         9.23829
     2000.42163         4.16285         9.35033
     2000.42437         0.54104         9.36338
     2000.42710         9.11424         9.73213
     2000.42984         9.37344         8.93481
     2000.43258         3.59363         8.73140
     2000.43532         1.73183         8.79123
     2000.43806         2.96002         9.12081
     2000.44079         4.26522         8.69442
     2000.44353         2.20141         9.06860
     2000.44627        12.26861         8.82277
     2000.44901         1.85381         8.92719
     2000.45175         2.83300         9.43409
     2000.45448        -3.72080         9.57332
     2000.45722         2.55739         9.05664
     2000.45996         4.45159         9.47651
     2000.46270        11.65478         9.02074
     2000.46543         8.55798         9.35794
     2000.46699        12.14069        39.27552
     2000.47091         2.35037         8.97506
     2000.47365        10.21957         9.24917
     2000.47639         8.03176         8.93590
     2000.47912         3.22796         9.43735
     2000.48186        -1.88485         9.21871
     2000.48460         2.71235         9.62444
     2000.48734        -1.09345        10.17050
     2000.49008         8.29674         9.23612
     2000.49281        15.13794         9.38840
     2000.49555        -2.53787         9.01965
     2000.49829         2.33933         8.88586
     2000.50103         6.14952         9.09580
     2000.50376        11.20572         9.00878
     2000.50650        15.07792         9.35251
     2000.50924         2.26911         9.37752
     2000.51198         1.07031         9.30464
     2000.51472         2.32950         9.11102
     2000.51745         7.47770         9.09580
     2000.52019         2.80589         8.94025
     2000.52293         0.36709         8.82603
     2000.52567         0.16329         9.04685
     2000.52841        -1.40952         9.10885
     2000.53114        -3.70932         9.41668
     2000.53388         9.25887         9.19369
     2000.53622        -1.56110        11.24302
     2000.54209        12.15946         9.34272
     2000.54483         2.01366         9.28942
     2000.54757         0.53185         9.56571
     2000.55031         6.21905         9.27092
     2000.55279        11.48078         9.80719
     2000.55852        -3.83237         9.03271
     2000.56126         4.24183         9.36991
     2000.56568        28.99145        22.46538
     2000.56947         3.73942         9.71908
     2000.57221        11.14761        10.40654
     2000.57455         4.52464        11.64767
     2000.57769         3.76200         9.75715
     2000.57991        -1.46571        12.02512
     2000.58316        11.04940        10.38152
     2000.58590         6.05459        10.11828
     2000.58864         7.85379        10.31082
     2000.59138        -0.41002         9.75280
     2000.59411         9.38118        10.04105
     2000.59685        10.73337         9.82785
     2000.59959         6.57057         9.81263
     2000.60233        -4.35624         9.80066
     2000.60507        20.94696        10.38914
     2000.60780        -2.26284        10.90147
     2000.61054        -1.79765        10.03018
     2000.61288         6.21438        11.87827
     2000.61602         7.67474         9.89530
     2000.61875         7.03094         9.68427
     2000.62149        14.64213         9.58637
     2000.62423         5.27633         9.53960
     2000.62697        19.47053         9.71582
     2000.62971         5.06172        10.52837
     2000.63244        19.75392         9.41124
     2000.63518         9.38011         9.44605
     2000.63792        -1.30069         9.27636
     2000.64066         6.76350         9.57332
     2000.64339        -0.80030         9.56027
     2000.64613         9.17290        10.18899
     2000.64887        -3.02391         9.85396
     2000.65161        15.54429         9.59399
     2000.65435         6.25248         9.98558
     2000.65708        -2.30132         9.98558
     2000.65982         3.62587         9.74627
     2000.66256         0.12007         9.35577
     2000.66530         7.67227         9.17738
     2000.66804         6.91346        10.11502
     2000.67077         1.31866         9.42974
     2000.67351         7.24385         9.11538
     2000.67625        -4.38395         9.68645
     2000.67899       -11.11676         9.36665
     2000.68172        11.58744         9.33184
     2000.68446       -10.70036        10.27492
     2000.68647         7.16037        13.86886
     2000.68994        10.31803         9.76585
     2000.69268        10.49922         9.82024
     2000.69541        -3.48958         9.76803
     2000.69815        -3.14539         9.67231
     2000.70089        -2.88819         9.85505
     2000.70363         7.22101         9.44170
     2000.70637        -9.02880         9.82242
     2000.70910        -7.74460         9.37100
     2000.71184        -0.26641         9.45258
     2000.71458       -10.50821         9.18826
     2000.71732        -0.36902        10.23794
     2000.72005        -0.73182         9.80610
     2000.72279        -6.51762         9.47977
     2000.72488         6.29894        13.61324
     2000.72827        -8.63023         9.25678
     2000.73101         6.69396         9.31008
     2000.73286        -3.14796        19.02372
     2000.73648        -4.68465         9.67883
     2000.73922        -1.01545         9.75715
     2000.74196        -2.14625         9.82242
     2000.74470        12.41994         9.38405
     2000.74743        19.71614        10.03235
     2000.75017         6.03033         9.06099
     2000.75291        14.82653         9.12625
     2000.75565         3.06872         8.98811
     2000.75838        22.28292        10.02691
     2000.76112        12.94612        10.34345
     2000.76321         8.16368        13.29126
     2000.76660        10.50451         8.84453
     2000.76934         4.50670         9.12081
     2000.77207        20.12990         8.97506
     2000.77481        10.76209         8.68571
     2000.77755         5.74729         9.40689
     2000.78029        16.35449         9.10885
     2000.78303         4.76768         9.41777
     2000.78576         4.63988         9.42103
     2000.78850         6.77307         8.95983
     2000.79124        18.77427         9.11538
     2000.79398         6.75846         9.74410
     2000.79671         9.75566         9.34816
     2000.79945         8.59786         9.89965
     2000.80154        15.12042        14.68141
     2000.80493        11.01625         9.02183
     2000.80767         4.82844         9.07948
     2000.81040         6.56364         8.85540
     2000.81314        11.79783         9.44061
     2000.81588         1.69103         8.91305
     2000.81862         8.26422         9.06643
     2000.82136        -3.89758         9.00442
     2000.82409        12.91662         8.65417
     2000.82586         9.51388        21.05347
     2000.83231        -9.80180         8.84017
     2000.83504         6.57440         9.22633
     2000.83778        13.06459         9.02618
     2000.84052        -2.37321         8.91088
     2000.84326        -0.49601         9.95621
     2000.84600        10.32618         8.62371
     2000.85147        -2.89043         8.56824
     2000.85421        24.22177         9.15562
     2000.85695        11.97496         8.49318
     2000.85969         0.68116         8.91197
     2000.86242        -6.63964         7.78397
     2000.86516        10.47255         8.86519
     2000.87064        -0.52306         8.67701
     2000.87337        -2.12686         8.06134
     2000.87611        -1.97667         7.90797
     2000.87885        -2.82547         7.98302
     2000.88159        -2.69427         8.26584
     2000.88433        -0.01708         8.67919
     2000.88706        -2.30388         8.25170
     2000.88980         2.43331         8.41160
     2000.89254         7.03051         8.78252
     2000.89528         4.17170         9.32096
     2000.89802        -0.15910         8.59978
     2000.90075         1.13510         8.61718
     2000.90349        14.18229         8.37570
     2000.90623        -3.46551         8.97070
     2000.90897       -10.36932         9.20348
     2000.91170       -26.94612         8.98376
     2000.91444        -1.80793         8.55518
     2000.91718        -4.73573         8.72052
     2000.91992        -6.50953         8.89021
     2000.92266        -0.13934         8.49101
     2000.92539        14.17986         9.62227
     2000.92813        -1.09795         8.65961
     2000.93087        -4.21075         8.62589
     2000.93361        -6.59856         8.74010
     2000.93634         6.89464         8.87933
     2000.93908        -1.21616         8.24082
     2000.94182        -8.85497         8.40616
     2000.94456       -12.92177         8.19079
     2000.94730        -1.63458         8.10485
     2000.95003        -7.47038         8.35068
     2000.95277         4.18081         8.23973
     2000.95551        -3.16099         8.27128
     2000.95825        -0.77079         8.16359
     2000.96099        -7.58160         8.51820
     2000.96372       -12.63240         8.06569
     2000.96646        10.51979         8.91197
     2000.96920        -0.30301         8.74336
     2000.97194        -7.74082         8.94895
     2000.97467        -0.71262         8.33328
     2000.97741        -8.19042         8.30282
     2000.98015        -8.47923         8.22015
     2000.98289       -12.57203         7.94387
     2000.98563         0.77216         8.33219
     2000.98836        -9.24764         8.64438
     2000.99110       -12.17145         8.05155
     2000.99384        -5.40225         8.26802
     2000.99658        -8.00705         8.25061
     2000.99932       -10.10686         7.90688
     2001.00753        -7.46027         8.75424
     2001.01027         5.20692         8.23756
     2001.01300        -1.19688         8.44858
     2001.01574       -16.77368         8.21798
     2001.01848       -15.01449         8.24082
     2001.02122        -4.76529         7.92972
     2001.02396        -1.94210         8.32023
     2001.02669         0.75210         8.04611
     2001.02943       -16.81071         8.27128
     2001.03217       -12.85751         8.16468
     2001.03491         6.23568         8.03197
     2001.03765        -9.61812         8.04720
     2001.04038        -9.20892         8.34742
     2001.04312       -14.59873         8.01783
     2001.04586       -15.19153         8.17773
     2001.04860        -5.71134         8.22668
     2001.05133        -1.18314         8.50515
     2001.05407       -10.60295         8.30935
     2001.05681         1.33225         7.99173
     2001.05955        -9.10955         8.40616
     2001.06229       -10.67036         8.81189
     2001.06502         0.74484         8.15706
     2001.06776        -9.60397         8.26258
     2001.07050       -17.89577         8.13749
     2001.07324        -1.63858         8.27345
     2001.07598        -1.54938         8.10812
     2001.07871        -5.04418         8.57911
     2001.08145        -5.38999         8.43771
     2001.08419        -5.02879         8.50079
     2001.08693        -0.58160         8.08201
     2001.08966         0.93160         8.53995
     2001.09240        -5.26821         8.48448
     2001.09514        -0.94701         8.85867
     2001.09788       -10.54581         8.21254
     2001.10062       -10.96562         7.95039
     2001.10335       -11.55342         7.73937
     2001.10609       -12.29623         8.77817
     2001.10883        -0.67403         8.51711
     2001.11157        -6.45584         8.00478
     2001.11431         6.13936         8.70094
     2001.11704       -11.92944         8.11138
     2001.11978         2.70875         8.33981
     2001.12252        -9.97805         7.68824
     2001.12526       -12.69586         8.43662
     2001.12756       -11.63973         9.77129
     2001.13073       -15.76947         7.84379
     2001.13261        -2.92145        13.35326
     2001.13621       -16.81207         8.28651
     2001.13895        -8.89388         8.44641
     2001.14168         2.03532         8.47469
     2001.14442        -9.02249         8.49536
     2001.14716       -13.08829         8.63676
     2001.14990        -4.04010         8.61718
     2001.15264       -11.87890         8.38876
     2001.15537         1.79930         8.84888
     2001.15811       -10.48851         8.50079
     2001.16085        -0.33131         8.92719
     2001.16359         4.31288         9.03706
     2001.16629       -12.97185         9.48739
     2001.16906       -13.24773         8.43335
     2001.17180         4.00747         8.04938
     2001.17454       -27.10633         9.05229
     2001.17728       -16.42414         9.00225
     2001.18001        -7.78994         8.93916
     2001.18275         1.45825         9.02727
     2001.18549         6.16045         9.33184
     2001.18823        -0.30436         9.36665
     2001.19097         2.45784         8.97506
     2001.19370        -0.46796         8.83909
     2001.19644         8.02223         9.10341
     2001.19918         9.33043         8.99464
     2001.20192         5.36262         8.97288
     2001.20465         0.86782         8.98811
     2001.20739        -3.33899         9.17303
     2001.21013        -2.64479         9.36882
     2001.21287         2.80841         8.58455
     2001.21561       -17.97540         8.98267
     2001.21834        -8.07520         8.70529
     2001.22108        17.45999         8.80101
     2001.22382        -1.18181         9.37535
     2001.22656         4.62938         8.92502
     2001.22930        13.46558         8.94895
     2001.23203         0.34377         9.00225
     2001.23477         5.84697         9.00442
     2001.23751         1.90017         9.94424
     2001.24025        -3.34964         9.07078
     2001.24298        -5.25644         9.10450
     2001.24572        -8.84325        10.42286
     2001.24846        -2.44905         8.89021
     2001.25120        -4.06486         8.82277
     2001.25394        -3.46566         8.92828
     2001.25667        -3.12346         9.11211
     2001.25941         0.48473         9.50588
     2001.26215         4.85793         9.28942
     2001.26489        10.15912         9.46672
     2001.26762         4.44832         9.23938
     2001.27036         2.19051         9.05555
     2001.27310        -1.42929         9.33619
     2001.27584         3.46591         9.75715
     2001.27858        -2.51690         9.27528
     2001.28131       -11.71470         9.23829
     2001.28405        -4.16251         9.55918
     2001.28679        -0.48231         9.36556
     2001.28953        -0.93712         9.44170
     2001.29227        -8.79692         9.66578
     2001.29500        -3.51272         9.90508
     2001.29774        -2.63153         9.27745
     2001.30048        11.25767         9.15018
     2001.30322        -1.03814         9.22415
     2001.30595        -0.77194         9.79957
     2001.30869         7.43825         9.45149
     2001.31143        -8.80955         9.52763
     2001.31417         1.62865         9.97361
     2001.31691        -3.44016         9.17955
     2001.31964         4.42004         9.38514
     2001.32238        -6.42377         9.55700
     2001.32512         9.85543         9.54613
     2001.32786         2.96962        10.05628
     2001.33060        13.01082         9.15127
     2001.33333         2.07102         9.06643
     2001.33607         7.18521         9.94098
     2001.33881        -3.48959         9.42974
     2001.34155        -2.34640         9.03706
     2001.34428         3.64080         9.37535
     2001.34702        12.75699         9.46346
     2001.34976         1.75219         9.72452
     2001.35250        -3.97161         9.27963
     2001.35524         1.15858         9.63967
     2001.35797        -7.85422         9.35468
     2001.36071         5.21397         9.99646
     2001.36345         6.80817         9.57876
     2001.36619        11.09136         9.72996
     2001.36893         7.96456         9.33510
     2001.37166        -5.40424         9.69080
     2001.37440         8.45095         9.87136
     2001.37714         4.33315         9.61357
     2001.37988        -1.13166         9.33728
     2001.38261        -6.37846         9.34163
     2001.38535        -4.82527         9.38840
     2001.38809         0.00393         9.54830
     2001.39083        10.65013         9.52872
     2001.39357         2.84632         9.34816
     2001.39630        12.50552         9.95730
     2001.39904         3.03671        10.19443
     2001.40178         7.27391         9.88333
     2001.40452        10.88010         9.68862
     2001.40726        14.87530         9.78217
     2001.40999         7.69450         9.58637
     2001.41273        14.81669        10.09435
     2001.41547         3.26489         9.71799
     2001.41821         4.83908         9.65055
     2001.42094         1.56428         9.75280
     2001.42368         6.50447         9.90944
     2001.42642         8.61267         9.69515
     2001.42916        -3.22013        10.38261
     2001.43190        -0.58294        10.62191
     2001.43463         9.76226         9.91487
     2001.43737        -0.36055         9.76803
     2001.44011         5.19365         9.63097
     2001.44285        11.70184         9.74954
     2001.44559        -4.86496         9.88115
     2001.44832         4.29423        10.01495
     2001.45106        -8.39257        10.25969
     2001.45380        -1.07137         9.70385
     2001.45654         2.74782         9.33293
     2001.45927         5.38902         9.85614
     2001.46201        -0.15279         9.49718
     2001.46475        -4.58559        10.48921
     2001.46749         0.60160        10.47833
     2001.47023        -0.23620         9.97579
     2001.47296         1.97600         9.89638
     2001.47570       -12.72081         9.83547
     2001.47844         2.78239         9.95403
     2001.48118         1.40358        10.05302
     2001.48392         3.72078         9.79957
     2001.48665        12.43197         9.54178
     2001.48939        -0.80683         9.46890
     2001.49213         2.57237        10.42938
     2001.49487        13.44956        10.08130
     2001.49760         6.31676         9.81154
     2001.50034        -0.09405        10.16179
     2001.50308        -7.93785        10.16071
     2001.50582        -5.48366         9.55483
     2001.50856         5.72054         9.42539
     2001.51129         3.58674         9.64511
     2001.51403       -10.04407         9.82459
     2001.51677         3.26813         9.82568
     2001.51951        -5.04868         9.80175
     2001.52225        10.04352        10.24773
     2001.52498        11.52071         9.58311
     2001.52772         5.68091         9.54069
     2001.53046         1.67211         9.68536
     2001.53320       -16.29270        10.09109
     2001.53593         7.33550         9.76368
     2001.53867        -0.47731         9.83003
     2001.54141        -2.03011         9.76150
     2001.54415        -3.32692         9.91487
     2001.54689        -3.00972        10.26731
     2001.54962        -1.56952        10.23576
     2001.55236         0.68767         9.88115
     2001.55510         3.59787         9.89203
     2001.55784         9.25106        10.06390
     2001.56057        -1.11774        10.50879
     2001.56331        11.69845         9.66360
     2001.56605        -0.41135        10.34019
     2001.56879         4.57485        10.43047
     2001.57153        -7.15296        10.30211
     2001.57426       -11.55476        10.56644
     2001.57700         9.67643        10.65781
     2001.57974        -7.63037        10.22488
     2001.58248         5.50882        10.71981
     2001.58522         7.54102        10.53707
     2001.58795        13.13622        11.12990
     2001.59069        -3.89959        10.57949
     2001.59343        -8.03839        10.73287
     2001.59617        -0.75420        10.66978
     2001.59890        -2.95000        11.24302
     2001.60164        -0.47581        10.51314
     2001.60438        23.12439        10.91670
     2001.60712         5.21659        10.49900
     2001.60986         5.66478        10.59907
     2001.61259         2.32098        10.48051
     2001.61533         5.48517        10.77638
     2001.61807        18.18937        10.31517
     2001.62081        -4.07544         9.96600
     2001.62355        -3.29624        10.79922
     2001.62628        -5.00404        10.30211
     2001.62902         9.42015        11.22562
     2001.63176        15.72235        10.63388
     2001.63450        13.05254        11.26369
     2001.63723        14.45074        11.39204
     2001.63997        14.19193        10.81118
     2001.64271        -0.62387        10.75027
     2001.64545         1.03533        10.55556
     2001.64819        18.67352        10.90582
     2001.65092       -16.36528        10.66434
     2001.65366        -5.67109        10.71655
     2001.65640         5.21711        10.95694
     2001.65914         8.80430        11.05484
     2001.66188         6.83550        10.82424
     2001.66461        20.65069        12.01424
     2001.66735        -4.00611        10.09218
     2001.67009        18.07109        11.20930
     2001.67283        22.45928        11.45731
     2001.67556        -1.20352        11.50517
     2001.67830        13.15767        12.38625
     2001.68378        13.04506        10.52184
     2001.68652         4.35826        10.78399
     2001.68925         4.06646        10.18246
     2001.69199        -0.78235        10.26078
     2001.69473        16.55485        10.39675
     2001.69747        -0.86596        10.99393
     2001.70021        24.70224        10.27166
     2001.70294        10.61643         9.82133
     2001.70568        16.39663        10.00081
     2001.70842        13.24383         9.98123
     2001.71116        14.94102         9.80827
     2001.71389        21.80222        10.06063
     2001.71663        19.79541         9.97688
     2001.71937         6.94861        11.45296
     2001.72211        12.58680         9.74954
     2001.72485         9.38400         9.57441
     2001.72758         5.41220        10.28471
     2001.73032        19.70139         9.87245
     2001.73306        13.19259         9.81589
     2001.73580         2.43578         9.48521
     2001.73854        13.63798         9.70929
     2001.74127         6.52817         9.66469
     2001.74401        -7.17963        10.48921
     2001.74675         3.01157         9.59508
     2001.74916        -2.37454        11.12119
     2001.75222       -36.04804        10.33584
     2001.75496       -35.48885        11.22453
     2001.75770       -24.54465        10.87645
     2001.76044       -31.63746        10.46745
     2001.76318       -23.65226        10.27927
     2001.76591       -22.18206        11.10161
     2001.76865       -41.06387        10.09218
     2001.77139       -26.21267        10.00189
     2001.77413       -44.47248        10.26404
     2001.77687       -37.24328         9.79305
     2001.77960       -21.66409        10.00189
     2001.78234       -27.04989        10.47180
     2001.78508       -24.91369        11.07442
     2001.78782       -43.57450        10.06607
     2001.79055       -37.82930        10.43156
     2001.79329       -36.81511         9.88551
     2001.79603       -47.82991        10.80574
     2001.79877       -43.58072        11.23758
     2001.80151       -31.34652         9.53307
     2001.80424       -35.24332        10.90582
     2001.80698       -45.68813        10.80574
     2001.80972       -28.31793         9.22633
     2001.81246       -30.77174         9.43953
     2001.81520       -35.78054        11.20060
     2001.81793       -41.11135        10.28471
     2001.82067       -24.27715        10.11828
     2001.82341       -40.01395        10.60016
     2001.82615       -39.94976        10.14113
     2001.82888       -31.67856         9.99863
     2001.83162       -33.05837        10.22380
     2001.83436       -17.88617         9.93337
     2001.83710       -21.93198        10.13351
     2001.83984       -44.22178         9.94751
     2001.84257       -36.71258         9.99319
     2001.84531       -23.03039        10.96673
     2001.84805       -30.66819        12.37972
     2001.85079       -46.85100         9.43844
     2001.85352       -49.82380        10.60342
     2001.85626       -44.83061         9.73431
     2001.85900       -46.36541        10.23250
     2001.86174       -42.59021        10.05846
     2001.86448       -24.33602        10.40763
     2001.86721       -19.16482        10.40328
     2001.86995       -21.83463        10.63823
     2001.87269       -34.00443        10.49682
     2001.87543       -33.60024         9.87245
     2001.87817       -45.48804        10.01821
     2001.88090       -53.70985         9.68645
     2001.88364       -24.66665        10.16071
     2001.88638       -32.58745         9.77564
     2001.88912       -33.72726        10.54795
     2001.89185       -11.60406        10.14004
     2001.89459       -27.97687         9.52111
     2001.89733       -18.10967        11.81083
     2001.90007       -30.02848         9.84091
     2001.90281       -20.12528         9.43082
     2001.90554       -33.63508        10.05519
     2001.90784       -25.60195        12.03817
     2001.91102       -21.81769         9.79631
     2001.91376       -28.20650         9.55592
     2001.91650       -29.51230         9.44714
     2001.91923       -34.32611        11.52801
     2001.92197       -47.14991         9.18499
     2001.92471       -48.94171         9.70059
     2001.92745       -29.66852         9.18390
     2001.93018       -32.95032         9.84308
     2001.93292       -54.97913         9.57006
     2001.93566       -30.94193         9.26657
     2001.93840       -21.87374         9.19913
     2001.94114       -28.83854        10.41633
     2001.94387       -37.67034         9.56027
     2001.94661       -48.76115         9.67339
     2001.94935       -28.05295         9.23829
     2001.95209       -11.38076        13.99069
     2001.95483       -39.91656         9.06534
     2001.95732       -56.07985        10.51531
     2001.96043       -51.97345         9.60160
     2001.96304       -41.42497         9.19261
     2001.96578       -47.41278         9.55483
     2001.96851       -54.91658         9.65381
     2001.97125       -46.32439         9.57332
     2001.97399       -41.57619        10.11067
     2001.97673       -42.38400         9.33075
     2001.97947       -58.55180         9.31879
     2001.98220       -48.44960         8.84017
     2001.98494       -51.89841         8.69333
     2001.98768       -36.36421         9.02183
     2001.99042       -35.87902         9.41777
     2001.99316       -50.45282         9.33510
     2001.99589       -34.68563         9.24156
     2001.99760        -9.47924        24.65938
     2002.00411       -30.11404         9.93337
     2002.00684       -23.62684         9.27528
     2002.00958       -24.26565         9.78326
     2002.01232       -33.26545         9.60160
     2002.01506       -39.17626        10.12807
     2002.01780       -42.79806        10.10741
     2002.02053       -44.47886        10.42938
     2002.02327       -53.26367         9.80284
     2002.02601       -73.37747        10.99610
     2002.02875       -42.32028         9.67448
     2002.03149       -51.18508        10.02800
     2002.03422       -56.88889         9.54830
     2002.03696       -37.78369        10.45114
     2002.03970       -43.72749        10.21401
     2002.04244       -50.11930         9.44823
     2002.04517       -42.08410         9.45475
     2002.04791       -50.39791         9.33945
     2002.05065       -31.92271         9.43300
     2002.05339       -36.82452         9.10232
     2002.05613       -48.69232         9.30791
     2002.05886       -39.24512         9.15453
     2002.06160       -53.84793         9.32096
     2002.06434       -49.01973        10.21945
     2002.06708       -50.20254         9.49391
     2002.06982       -55.16834         9.88007
     2002.07255       -63.64115        10.34127
     2002.07529       -53.25395         9.36012
     2002.07803       -58.63376         9.06643
     2002.08077       -61.06556         9.99537
     2002.08350       -48.95836         9.72561
     2002.08624       -47.63417         9.47325
     2002.08898       -52.65697        10.18029
     2002.09172       -64.86678         9.34272
     2002.09446       -64.02758        10.03670
     2002.09719       -56.20739         9.65273
     2002.09993       -48.59419        10.08239
     2002.10267       -35.00699         9.84743
     2002.10541       -57.79480         9.41886
     2002.10815       -51.09660         9.39928
     2002.11088       -44.37241         9.50370
     2002.11362       -51.91521         9.57223
     2002.11636       -41.05002         9.51893
     2002.11910       -39.10682         9.30247
     2002.12183       -48.63362         9.65273
     2002.12457       -45.26743        10.29015
     2002.12731       -37.58923         9.65816
     2002.13005       -53.78704         9.78108
     2002.13279       -48.88084        10.32496
     2002.13552       -44.30865         9.97905
     2002.13826       -52.88245         9.99863
     2002.14100       -38.40625        10.57297
     2002.14374       -72.43406        10.65999
     2002.14648       -57.35986         9.89094
     2002.14921       -47.70467         9.98123
     2002.15195       -39.01547         9.57223
     2002.15469       -45.92828         9.94316
     2002.15743       -38.27208        10.18137
     2002.16016       -40.88688         9.73757
     2002.16290       -43.14369         9.76585
     2002.16564       -38.74849         9.23720
     2002.16838       -35.44630        10.29015
     2002.17112       -56.48510         9.37317
     2002.17385       -37.35491         9.94860
     2002.17659       -39.65471        10.03670
     2002.17933       -48.74451         9.40037
     2002.18207       -30.34032         9.40689
     2002.18480       -42.37112         9.80501
     2002.18754       -41.30793         9.41886
     2002.19028       -18.96973        10.11393
     2002.19302       -28.94454         9.52872
     2002.19576       -21.42434         9.41995
     2002.19849       -42.88114         9.37970
     2002.20123       -41.62595         9.91814
     2002.20397       -37.45675        10.01277
     2002.20671       -49.79256         9.58637
     2002.20945       -39.73336         9.58746
     2002.21218       -29.93017         9.76259
     2002.21492       -55.65897         9.52763
     2002.21766       -52.12277         9.85614
     2002.22040       -35.91158         9.48521
     2002.22313       -43.46938         9.17303
     2002.22587       -60.29019         9.85722
     2002.22861       -44.17699         9.20892
     2002.23135       -43.54880         9.54069
     2002.23409       -46.53060         9.69624
     2002.23682       -27.63240         9.97035
     2002.23956       -43.56921         9.46019
     2002.24230       -58.73601         9.17194
     2002.24504       -31.69282         9.60269
     2002.24778       -42.36762        10.24446
     2002.25051       -55.28543         9.41016
     2002.25325       -47.35823         9.80610
     2002.25599       -44.86003        10.23359
     2002.25873       -38.08584        10.14983
     2002.26146       -49.36964         9.86266
     2002.26420       -39.31045         9.76694
     2002.26694       -43.18225        10.85143
     2002.26968       -31.85406        10.42068
     2002.27242       -46.75886        10.01821
     2002.27515       -53.09866         9.83112
     2002.27789       -36.79547        10.05737
     2002.28063       -47.13027        11.74883
     2002.28337       -27.43808        17.69775
     2002.28611       -28.11188         9.84852
     2002.28884       -39.27469         9.87572
     2002.29158       -44.52349         9.63206
     2002.29432       -57.25530        10.54468
     2002.29706       -60.65510         9.91814
     2002.29979       -44.85090         9.78652
     2002.30253       -47.55571         9.99537
     2002.30527       -47.07251         9.95077
     2002.30801       -41.14432         9.67774
     2002.31075       -47.18812         9.54178
     2002.31348       -44.61093         9.73431
     2002.31622       -47.75373         9.17303
     2002.31896       -58.61653         9.36230
     2002.32170       -55.70534         9.36882
     2002.32444       -56.73214         9.21762
     2002.32717       -49.36895         9.55156
     2002.32991       -39.52675         9.18717
     2002.33265       -48.64756         9.25134
     2002.33539       -38.09636         9.01313
     2002.33812       -42.26216         9.64946
     2002.34086       -40.60997         9.93663
     2002.34360       -42.42877         9.97579
     2002.34634       -61.56858         9.67666
     2002.34908       -48.86138         9.76150
     2002.35181       -42.61619         9.60051
     2002.35455       -50.08699         9.70603
     2002.35729       -50.65979         9.60704
     2002.36003       -58.87460         9.95295
     2002.36277       -63.56940        10.19116
     2002.36550       -38.16021         9.78326
     2002.36824       -41.02801         9.70820
     2002.37098       -36.77282         9.59616
     2002.37372       -40.18162        10.01168
     2002.37645       -49.73742         9.98558
     2002.37919       -31.74923         9.56244
     2002.38193       -29.20603         9.78978
     2002.38467       -35.52184         9.55483
     2002.38741       -44.39764         9.81480
     2002.39014       -48.42645         9.70276
     2002.39288       -35.13725         9.78978
     2002.39562       -48.03305         9.86157
     2002.39836       -46.94786         9.77455
     2002.40110       -20.07266        10.10849
     2002.40383       -50.06747        10.42394
     2002.40657       -36.65427        10.16941
     2002.40931       -40.79508         9.56788
     2002.41205       -36.54988        10.32713
     2002.41478       -36.35268        10.41633
     2002.41752       -27.21949         9.38405
     2002.42026       -42.18529         9.78108
     2002.42300       -34.71510         9.80066
     2002.42574       -32.14790        10.37282
     2002.42847       -38.83871         9.81698
     2002.43121       -27.63851         9.88877
     2002.43395       -30.19031         9.79957
     2002.43669       -27.65012         9.85831
     2002.43943       -31.95392        10.18790
     2002.44216       -26.30973        10.30429
     2002.44490       -37.24153        10.26513
     2002.44764       -28.60734        10.75353
     2002.45038       -22.75814        10.62953
     2002.45311       -29.87094         9.94207
     2002.45585       -37.05975         9.66687
     2002.45859       -32.23355         9.95730
     2002.46133       -32.29336         9.93989
     2002.46407       -40.81716        10.33801
     2002.46680       -43.69897        10.20966
     2002.46954       -43.78477        10.65455
     2002.47228       -32.74157        10.15636
     2002.47502       -33.83238         9.62988
     2002.47775       -38.42918        10.32061
     2002.48049       -40.44599         9.81698
     2002.48323       -40.09179        11.25499
     2002.48597       -39.84160        11.28109
     2002.48871       -22.18940        10.57623
     2002.49144       -17.57820        10.78834
     2002.49418       -28.31201        10.66107
     2002.49692       -41.50781        10.90691
     2002.49966       -30.42262        10.60886
     2002.50240       -44.93042        10.63714
     2002.50513       -45.35223        10.55012
     2002.50787       -45.41803        10.11393
     2002.51061       -33.24084        10.18790
     2002.51335       -46.81864         9.95512
     2002.51608       -46.78344        10.12481
     2002.51882       -40.34825        11.40945
     2002.52156       -47.63805        10.52293
     2002.52430       -35.12286        10.77855
     2002.52704       -38.87166        10.37064
     2002.52977       -33.49147        10.63170
     2002.53251       -21.47427        10.68500
     2002.53525       -38.27507        11.08095
     2002.53799       -38.68488        10.24555
     2002.54073       -16.82868        10.81227
     2002.54346       -39.36549        10.75897
     2002.54620       -35.37329        10.85687
     2002.54858       -48.05433        11.84781
     2002.55816       -27.51264        25.99840
     2002.55989       -44.28531        11.05049
     2002.56263       -33.46012        10.49356
     2002.56537       -53.56792        10.86992
     2002.56753       -28.81852        14.11795
     2002.57440       -29.56607        17.09296
     2002.57632       -40.73814        11.45405
     2002.57906       -38.22794        10.00951
     2002.58179       -51.69275        12.49068
     2002.58453       -42.07955        10.17267
     2002.58727       -33.52036        10.59255
     2002.59001       -40.28916        10.82315
     2002.59274       -43.83496        10.28906
     2002.59548       -42.69377        10.64476
     2002.59822       -35.57957        10.93954
     2002.60096       -33.79738        10.60886
     2002.60370       -34.62818        10.45114
     2002.60643       -35.26799        10.86992
     2002.60917       -44.87279        10.86231
     2002.61191       -40.53559        11.16688
     2002.61465       -26.52140        11.76623
     2002.61739       -36.94520        10.88950
     2002.62012       -46.04701        11.14730
     2002.62286       -30.90181        10.23032
     2002.62560       -40.77962        11.07224
     2002.62834       -31.63642        11.69770
     2002.63107       -16.84122        11.12881
     2002.63381       -31.90803        10.12916
     2002.63655       -32.04483        10.35324
     2002.63929       -34.85064        10.78290
     2002.64203       -48.82044        10.83620
     2002.64476       -40.01325        10.63062
     2002.64750       -37.92205        10.47072
     2002.65024       -40.40185        10.94498
     2002.65298       -46.05666        11.11467
     2002.65572       -31.66946        10.86883
     2002.65845       -28.27827        10.62627
     2002.66119       -38.04307        10.72416
     2002.66393       -49.23988        11.51822
     2002.66667       -40.09168        10.68936
     2002.66940       -35.29148        10.70785
     2002.67214       -20.43429        11.19081
     2002.67488       -35.87909        11.38661
     2002.67762       -22.75690        10.15527
     2002.68036       -31.42470        10.73504
     2002.68309       -43.63451        10.70893
     2002.68583       -37.19631        10.74592
     2002.68857       -26.62311        10.70567
     2002.69131       -24.22092        11.32787
     2002.69405       -34.33872        10.80139
     2002.69678       -38.34853        10.64476
     2002.69952       -34.94633        10.87536
     2002.70226       -33.66214        10.38478
     2002.70500       -19.52694        11.23323
     2002.70773       -26.32074        10.91670
     2002.71047       -32.60955        10.72851
     2002.71321       -15.95235        10.44679
     2002.71595       -35.83016        10.47289
     2002.71869       -24.61696        10.65999
     2002.72142       -17.66377        11.95659
     2002.72416       -32.31857        10.90691
     2002.72690       -40.24438        10.14004
     2002.72964       -34.66618        11.23867
     2002.73238       -43.56698        10.50988
     2002.73511       -30.41679        11.17341
     2002.73785       -36.47559        11.16362
     2002.74059       -27.70340        10.75680
     2002.74333        -5.23120        13.73071
     2002.74606       -26.34801        11.19516
     2002.74880       -49.54181        10.71655
     2002.75154       -38.69061        11.03417
     2002.75428       -45.41142        10.96238
     2002.75702       -18.02522        11.13098
     2002.75975       -37.04303        11.44970
     2002.76249       -32.44883        11.45731
     2002.76523       -39.28464        12.57878
     2002.76797       -37.95944        11.70967
     2002.77070       -30.26024        11.78907
     2002.77344       -15.03505        11.81409
     2002.77618       -31.39185        11.99901
     2002.77892       -43.04966        11.39748
     2002.82933       -21.50852        24.79099
     2002.85284        -1.87037        11.17993
     2002.85558         2.11782        10.55339
     2002.85832       -33.56898        10.24120
     2002.86105       -29.15179        10.18464
     2002.86379       -42.01259        10.35324
     2002.86653       -39.17339        10.62083
     2002.86927       -37.15320        10.63823
     2002.87201       -33.16500         9.80175
     2002.87474       -27.05381        11.43120
     2002.87748       -25.51661        10.48051
     2002.88022       -31.28742        10.18464
     2002.88296       -30.44422         9.84526
     2002.88569       -29.80802         9.93772
     2002.88843       -24.48683        10.50552
     2002.89117       -33.78663        10.11393
     2002.89391       -40.45044         9.79196
     2002.89665       -39.34024         9.49065
     2002.89938       -30.26905        10.14330
     2002.90212       -37.70985         9.52763
     2002.90486       -40.28565         9.79196
     2002.90760       -28.73146        10.35324
     2002.91034       -37.74026         9.33075
     2002.91307       -32.78807         9.92249
     2002.91581       -28.22387         8.96418
     2002.91855       -31.04068        10.08348
     2002.92129       -31.72948         9.77999
     2002.92402       -40.90529         9.87463
     2002.92650       -35.66153        11.98052
     2002.92950       -30.44289         9.86375
     2002.93224       -34.58270         9.10667
     2002.93498       -31.51350         9.96274
     2002.93771       -19.38631        10.07913
     2002.94045       -30.63711         9.93772
     2002.94319       -24.30892        10.06716
     2002.94593       -18.01472        10.02147
     2002.94867       -20.10252         9.89421
     2002.95140       -13.32833        10.15200
     2002.95414       -23.34313        10.34345
     2002.95688       -29.90694        10.85252
     2002.95962       -21.66174        10.09544
     2002.96235       -18.81955        10.09979
     2002.96509       -38.85835        10.27818
     2002.96783       -41.79715        10.41307
     2002.97057       -33.86696        10.30538
     2002.97331       -44.25476        10.10523
     2002.97604       -32.08757         9.83003
     2002.97878       -37.87137        10.13569
     2002.98152       -32.37918        10.46528
     2002.98426       -22.61898        10.20095
     2002.98700       -40.33278        10.61865
     2002.98973       -36.86459        10.14004
     2002.99247       -18.08639        10.09871
     2002.99521       -28.68920        10.16723
     2002.99795       -47.06200        10.07151
     2003.00342       -29.12161        10.67413
     2003.00616       -24.18641        10.29776
     2003.00890       -40.08822        10.23685
     2003.01164       -30.13502        10.64041
     2003.01437       -46.68383        10.56970
     2003.01711       -35.50363         9.91270
     2003.01985       -35.05044        10.01604
     2003.02259       -30.61724         9.57006
     2003.02533       -47.32604        10.18681
     2003.02806       -38.87185         9.95295
     2003.03080       -44.38765         9.99319
     2003.03354       -48.24646        10.01821
     2003.03628       -43.45826        10.12155
     2003.03901       -48.86507         9.78217
     2003.04175       -58.47287        10.12155
     2003.04449       -48.32067         9.91596
     2003.04723       -44.25448         9.75933
     2003.04997       -40.32228        10.24555
     2003.05270       -46.75609         9.84417
     2003.05544       -37.32489        10.39349
     2003.05818       -26.63170        10.17376
     2003.06092       -33.98850        10.01712
     2003.06366       -40.74330        10.73722
     2003.06639       -43.99211        10.66434
     2003.06913       -30.01291        10.49356
     2003.07187       -46.50172        10.72199
     2003.07461       -49.02052        10.32713
     2003.07734       -46.10033        10.40001
     2003.08008       -53.21713        10.84055
     2003.08282       -37.55893        10.83729
     2003.08556       -49.38674        11.32352
     2003.08830       -41.39454        10.00951
     2003.09103       -55.22735         9.99972
     2003.09377       -42.45115        10.04105
     2003.09651       -47.92896         9.89094
     2003.09925       -37.56776         9.87354
     2003.10198       -53.53556        10.68174
     2003.10472       -50.11337        10.19769
     2003.10746       -57.84017         9.89421
     2003.11020       -42.57098        10.37391
     2003.11294       -49.09278        10.51096
     2003.11567       -40.98259        10.10958
     2003.11841       -44.84239        10.65346
     2003.12389       -44.26600        10.54904
     2003.12663       -43.27180         9.94207
     2003.12936       -32.69761        10.78073
     2003.13210       -50.17141        10.65346
     2003.13484       -42.68422        10.09762
     2003.13758       -35.47402         9.79196
     2003.14031       -29.53383         9.77999
     2003.14305       -41.54863        10.43482
     2003.14579       -44.84443        10.44026
     2003.14853       -39.25524        10.15200
     2003.15127       -45.90204         9.26440
     2003.15400       -37.56085         9.45149
     2003.15674       -33.58865        10.23141
     2003.15948       -27.26046         9.86375
     2003.16222       -40.46626         9.96817
     2003.16496       -38.01906        10.74157
     2003.16769       -36.67687        10.14439
     2003.17043       -33.18567         9.97144
     2003.17317       -34.34648         9.99863
     2003.17591       -24.26528         9.94860
     2003.17864       -31.72909        10.46963
     2003.18138       -29.36989        10.54904
     2003.18412       -47.68369        10.45766
     2003.18686       -33.01650         9.83873
     2003.18960       -35.86630        10.06281
     2003.19233       -42.30611        10.82532
     2003.19507       -25.65691        10.44026
     2003.19781       -34.35772        10.05193
     2003.20055       -38.27052        10.55882
     2003.20329       -17.13632        10.39675
     2003.20602       -49.87613        10.39457
     2003.20876       -31.62193         9.85722
     2003.21150       -36.93674        10.37391
     2003.21424       -39.69854        10.33040
     2003.21697       -40.04235        10.19769
     2003.21971       -44.07015        10.70567
     2003.22245       -42.92995         9.75933
     2003.22519       -37.68576        10.14765
     2003.22793       -39.37656        10.32387
     2003.23066       -38.73337         9.99863
     2003.23340       -43.47917        10.48268
     2003.23614       -48.85798         9.18064
     2003.23888       -42.50578         9.70059
     2003.24162       -49.29558        10.25208
     2003.26464       -39.93540        20.54223
     2003.26626       -37.31882         9.79740
     2003.26899       -59.26963        10.37064
     2003.27173       -36.50243        10.43917
     2003.27447       -42.83224         9.98667
     2003.27721       -28.06704        10.02909
     2003.27995       -23.13584         9.85831
     2003.28268       -46.67865        10.06716
     2003.28542       -34.46245         9.79522
     2003.28786       -43.94063        11.45513
