# ================= DQRFIT RESULTS ================
# INPUT FILE: series/SMM1.rad
# OUTPUT: LDETRENDED
# FILTER FUNCTION: f(t)
# f(t)=+line(t)+annual(t)+jumps(t)
# line(t)=+P 1+P 2*t
# annual(t)=+P 3*sin(2*pi*t+P 4)
# jumps(t)=+P 5*heav(t-2013.5147  )
# heav(t)=(t<0?0:1)
# TOTAL OBSERVATIONS MTOT= 1656
# INITIAL TIME INTERVAL= 2014.4997 - 2009.5031 =  4.9966
# TOTAL OBSERVATIONS AFTER PREFILTER M= 1518
# TIME-SPAN= 2014.4997 - 2009.5332 =  4.9665
# OBSERVATIONS: USED M=  1518 REJECTED MTOT-M=   138 %USED=   91.6667
# N=  5 PARAMETERS
# MAXSIG= 175.00000
# MAXRES=  64.19739
# SCALE FACTOR FOR LENGTHS: SCL=  10.00000
# SCALE FACTOR FOR SIGMAS: SCLSIG=   1.00000
# CHI^2=  11526.099 DOF=  1513 CHI^2/DOF=   7.61804
# RMS=     21.550 SDEV=     21.557 MEAN=   -0.01033
#  P #       PARAMETER +-    SIGMA %error PARAMETER NAME
# P 1 =   1532017.16154 +- 1040.421   0.07 YZERO                              
# P 2 =      -762.86138 +-    0.517   0.07 SLOPE                              
# P 3 =         0.67686 +-    0.815 120.43 ANNUAL AMPLITUDE                   
# P 4 =        -0.22367 +-    1.664 744.16 ANNUAL PHASE                       
# P 5 =      4319.13504 +-    2.306   0.05 OFFSET 2013.5147                   
#       T            LDETRENDED       SIG_OBS
     2009.53319        61.97214        25.90335
     2009.53593        64.19574        21.06217
     2009.53867        56.80034        21.24710
     2009.54141        55.37094        20.96005
     2009.54414        60.89554        20.88277
     2009.54688        53.15414        20.87725
     2009.54962        52.58774        21.55347
     2009.55236        53.05734        21.96748
     2009.55509        46.59194        23.52140
     2009.55783        52.29754        22.38425
     2009.56057        52.99815        23.07979
     2009.56331        50.56275        21.40166
     2009.56605        45.54135        21.32438
     2009.56878        41.61795        20.82757
     2009.57152        44.40155        21.10909
     2009.57426        51.58815        21.01249
     2009.57700        47.62475        21.25538
     2009.57974        44.27135        20.71164
     2009.58247        42.67195        20.75856
     2009.58521        39.98655        20.95177
     2009.58795        42.12515        21.90400
     2009.59069        45.26275        20.80272
     2009.59342        40.22035        21.84880
     2009.59616        39.96195        21.49274
     2009.59890        41.07755        21.34646
     2009.60164        43.94315        20.73096
     2009.60438        44.03275        21.13669
     2009.60711        43.82235        20.85517
     2009.60985        43.02895        21.93160
     2009.61259        37.16355        20.54880
     2009.61533        38.35115        20.78616
     2009.61807        48.32775        21.09805
     2009.62080        43.69835        20.70612
     2009.62354        44.17895        20.72268
     2009.62628        42.03355        20.67024
     2009.62902        42.00816        20.48256
     2009.63175        42.55676        20.99041
     2009.63449        37.58136        21.53139
     2009.63723        41.85296        22.37321
     2009.63997        42.51256        21.22226
     2009.64271        39.21416        21.07321
     2009.64544        28.89376        20.83309
     2009.64818        37.19036        20.89381
     2009.65092        34.67496        21.51207
     2009.65366        33.05956        21.92884
     2009.68377        29.27217        20.47428
     2009.68651        27.10977        20.65920
     2009.69199        22.22397        20.94901
     2009.69472        21.95457        21.29954
     2009.69746        29.34817        20.97385
     2009.70020        36.41778        21.60039
     2009.70294        25.29838        20.88829
     2009.70568        24.89798        20.76132
     2009.70841        22.07558        20.34731
     2009.71115        30.78918        21.35750
     2009.71389        32.05378        20.88829
     2009.71663        23.80238        20.54328
     2009.71937        29.32698        20.73096
     2009.72210        26.49158        21.40994
     2009.72484        29.36318        21.93988
     2009.72758        31.30878        21.23882
     2009.73032        30.94938        20.48532
     2009.73305        27.50299        20.84689
     2009.73579        28.13059        20.97937
     2009.73853        24.30619        22.59954
     2009.74127        24.33879        21.70527
     2009.74401        25.25739        21.20018
     2009.74674        18.31299        20.64540
     2009.74948        19.48059        20.63436
     2009.75222        20.62119        20.65368
     2009.75496        19.40979        20.78064
     2009.75770        23.27439        21.09253
     2009.76043        29.77999        20.57916
     2009.76317        25.39559        20.39147
     2009.76591        20.52319        20.54604
     2009.76865        23.77679        21.07321
     2009.77138        19.80139        20.87449
     2009.77412        19.74899        21.01249
     2009.77686        16.84459        20.79168
     2009.77960        21.15919        20.63160
     2009.78234        26.40479        21.25814
     2009.78507        21.35639        20.53500
     2009.78781        22.23499        21.04837
     2009.79055        17.95959        20.94073
     2009.79329        18.95519        20.91313
     2009.79603        21.32179        21.44582
     2009.79876        25.65239        21.15878
     2009.80150        21.70799        21.04285
     2009.80424        18.85360        20.95177
     2009.80698        11.81720        22.72098
     2009.80971        11.55080        21.51759
     2009.81245        14.10540        21.76323
     2009.81519        16.74200        23.31164
     2009.81793        17.46360        21.87364
     2009.82067        18.40020        21.63627
     2009.82340        21.07880        22.59126
     2009.82614        19.89040        21.69423
     2009.83709        19.26380        21.38510
     2009.83983        23.49041        20.97385
     2009.84257        18.44901        21.19190
     2009.84531         9.40461        21.59763
     2009.84804         8.00021        21.37682
     2009.85078         9.12581        20.99593
     2009.85352         9.36741        21.69699
     2009.85626        11.95201        21.33542
     2009.85900        14.66061        21.46790
     2009.86173        10.97721        21.00421
     2009.86447        13.91781        22.20485
     2009.86721        11.29541        21.40994
     2009.86995         3.33601        23.33096
     2009.87269        18.26162        22.20485
     2009.87542        11.66422        21.28850
     2009.87816        16.70282        21.39062
     2009.88090        16.42042        21.92884
     2009.88364        17.47702        20.97385
     2009.88637        20.98062        21.28022
     2009.88911        14.20822        22.62714
     2009.89185        17.53382        21.69699
     2009.89459        16.36642        21.05665
     2009.89733        10.96902        22.19105
     2009.90006        20.12862        21.63903
     2009.90280        18.40822        21.47342
     2009.90554        20.29682        20.79996
     2009.90828        14.74543        20.87449
     2009.91102        10.16603        20.78340
     2009.91375        11.79663        20.62884
     2009.91649        20.76823        20.63988
     2009.91923        17.59183        20.61228
     2009.92197        19.48343        20.66472
     2009.92470        18.21803        20.48532
     2009.92744        16.29163        20.63160
     2009.93018        21.19223        20.77236
     2009.93292        15.25683        21.14221
     2009.93566        16.36043        20.47428
     2009.93839        15.89503        20.97661
     2009.94113         9.27763        20.53500
     2009.94387        14.13323        20.67300
     2009.94661         8.97983        20.64816
     2009.94935         9.08944        21.08149
     2009.95208         6.23304        20.92141
     2009.95482         3.71364        20.68956
     2009.95756         8.48824        21.21398
     2009.96030        11.44484        20.80548
     2009.96303        11.38644        20.95453
     2009.96577         7.65504        21.85984
     2009.96851        18.55664        21.50379
     2009.97125        16.23924        22.11928
     2009.97399        21.97384        21.13117
     2009.97672        14.83344        20.77788
     2009.97946        10.82904        20.79168
     2009.98220        13.93164        21.97300
     2009.98767        18.41484        21.09529
     2009.99041        23.51144        20.81376
     2009.99589        11.15564        20.77788
     2010.00410        12.03844        20.77236
     2010.00684         9.09704        22.07512
     2010.00958        11.77864        21.73839
     2010.01232        12.65725        21.04837
     2010.01505        11.98685        22.19933
     2010.01779        20.59245        20.68680
     2010.02053        25.98505        20.58468
     2010.02327        21.11265        20.83861
     2010.02600        19.06325        20.83309
     2010.02874        14.54685        21.93436
     2010.03148        19.58745        20.83585
     2010.03422        19.96605        23.05219
     2010.03696        24.08365        21.66939
     2010.03969        23.29725        21.68595
     2010.04243        26.22685        20.63160
     2010.04517        17.17245        21.06493
     2010.04791        17.59006        20.85517
     2010.05065        28.07766        21.27194
     2010.05338        21.38526        22.61334
     2010.05612        18.34986        21.24710
     2010.05886        22.01846        21.05665
     2010.06160        19.08906        21.14497
     2010.06433        20.55366        22.62162
     2010.06707        22.69626        21.26366
     2010.06981        11.13786        21.82395
     2010.07255        11.14646        21.29126
     2010.07529        16.18306        21.30782
     2010.07802        18.71866        20.72268
     2010.08076        18.44227        20.88001
     2010.08350        14.42487        22.80654
     2010.08624        15.63047        22.07512
     2010.08898        24.27407        23.38340
     2010.09174         9.45179        23.42480
     2010.09445        17.05427        22.57470
     2010.09719        11.68487        21.31058
     2010.09993         3.50647        21.55899
     2010.10266         9.50307        21.12565
     2010.10540        12.66067        21.53139
     2010.10814        12.87127        21.62523
     2010.11088        12.16887        22.52501
     2010.11362        16.56247        22.30697
     2010.11635         3.93808        23.57937
     2010.11909        18.81468        21.16154
     2010.12183        10.29428        20.96005
     2010.12457         9.90088        23.06047
     2010.12731         4.89448        21.83499
     2010.13004         8.76908        21.72459
     2010.13278        11.21668        22.68786
     2010.13552         6.43328        21.37958
     2010.13826         5.51588        21.09529
     2010.14099         3.07948        21.18914
     2010.14373         4.80808        22.35389
     2010.15742        15.45908        21.00145
     2010.16564         6.22788        21.65559
     2010.16837         6.33448        21.65283
     2010.17111         2.15408        22.62162
     2010.17385         8.07268        20.76684
     2010.17659         8.36128        21.73839
     2010.17932         3.12888        21.07597
     2010.18206         3.31348        20.80548
     2010.18480         2.41608        20.65920
     2010.18754        -3.16431        22.16344
     2010.19028         0.73329        22.59954
     2010.19301         2.05189        23.59041
     2010.19575         1.75649        21.35750
     2010.19849         8.59709        23.00527
     2010.20123         1.73269        20.97385
     2010.20397         4.16829        20.97385
     2010.20670         0.10589        21.21950
     2010.20944        12.48249        21.02353
     2010.21218        11.20509        20.71992
     2010.21492         8.15469        20.86621
     2010.21765         4.87129        20.68128
     2010.22039        -3.84410        20.73372
     2010.22313        11.07150        20.67576
     2010.22587         7.78010        21.24158
     2010.22861        13.93170        21.66387
     2010.23134         5.75230        21.24158
     2010.23408        -1.82310        21.77151
     2010.23956         8.15610        21.75771
     2010.24230         5.75570        24.28319
     2010.24503         4.90730        23.60697
     2010.24777         7.39090        23.92162
     2010.25051         6.04650        24.61164
     2010.25325        -0.03090        21.44030
     2010.25598         8.12971        22.80102
     2010.25872         7.88631        25.87299
     2010.26146         4.84791        22.54710
     2010.26420         8.19151        24.22246
     2010.26694         3.64711        21.83775
     2010.26967        14.68771        22.58850
     2010.27241        11.22531        21.02077
     2010.27515        10.01591        21.93160
     2010.27789        12.47351        21.64179
     2010.28062         6.58211        20.87449
     2010.28336         2.40071        21.23054
     2010.28610         5.53231        21.12289
     2010.28884         4.39791        20.64264
     2010.29158         3.31452        20.57916
     2010.29431        12.10712        20.79996
     2010.29705        10.24372        20.57640
     2010.29979         3.61432        22.89211
     2010.30253         4.38792        21.53691
     2010.30527        12.75552        21.40718
     2010.30800        17.13712        21.39338
     2010.31074        11.71672        20.87449
     2010.31348         8.74232        20.31971
     2010.31622         7.91792        20.12927
     2010.31895        11.11152        20.82481
     2010.32169        15.72812        21.02629
     2010.32443        13.28872        21.71355
     2010.32717        10.69632        21.70251
     2010.32991         7.58092        20.82481
     2010.33264         7.90452        21.93436
     2010.33538        15.22312        27.90993
     2010.33812        11.56172        24.26939
     2010.34086         4.78132        21.68319
     2010.34360         8.78192        22.22693
     2010.34633         5.24652        23.60421
     2010.34907         3.02312        22.24625
     2010.35181         9.64672        20.49636
     2010.35455         4.67132        20.41079
     2010.35728        12.99392        21.99508
     2010.36002        14.70653        20.43839
     2010.36276        13.44213        20.14307
     2010.36550        10.33973        20.93797
     2010.36824         9.07733        20.98213
     2010.37097        10.98593        20.79444
     2010.37371         9.17353        20.86897
     2010.37645         8.67413        21.96748
     2010.37919        17.18573        24.27491
     2010.38193        12.10033        21.72735
     2010.38466         6.74393        20.65092
     2010.38740         2.62353        20.27003
     2010.39014        -0.59487        20.07682
     2010.39288         7.76173        19.94434
     2010.39561         8.11234        20.51844
     2010.39835         9.80494        21.22502
     2010.40109         8.34554        20.23967
     2010.40383         8.34814        20.51568
     2010.40657        13.99674        23.32544
     2010.40930        17.62134        22.86726
     2010.41204        11.33194        24.17002
     2010.41478        14.61054        23.23160
     2010.41752         4.84014        20.94625
     2010.42026         0.78974        21.18362
     2010.42299         7.08034        20.93245
     2010.42573         6.23094        20.22587
     2010.42847         4.59254        20.71440
     2010.43121         4.46615        21.11185
     2010.43394        10.41075        20.44667
     2010.43668        13.55835        20.34179
     2010.43942        11.54795        20.36939
     2010.44216         8.84355        20.88829
     2010.44490         6.69915        20.37491
     2010.44763         6.35075        20.79168
     2010.45037         9.64435        20.20655
     2010.45311         6.86495        21.05113
     2010.45585         8.64155        23.39444
     2010.45859         7.99515        21.44582
     2010.46132         7.77375        22.12480
     2010.46406         6.33236        20.52120
     2010.46680         7.00696        20.57640
     2010.46954        10.56356        20.67024
     2010.47227         1.91316        21.16154
     2010.47501         6.12376        21.10633
     2010.48049         7.88796        22.21589
     2010.49418         2.03196        22.62990
     2010.49692         5.03956        22.29041
     2010.49965         6.34217        22.21589
     2010.50239         4.17477        21.78255
     2010.50513         4.02437        20.72544
     2010.50787         0.65197        20.71992
     2010.51060         8.68957        20.67024
     2010.51334        11.06817        20.81376
     2010.51608         5.17577        20.98213
     2010.51882         7.11437        21.67215
     2010.52156        12.86397        20.28935
     2010.52429         5.10957        20.22311
     2010.52703        11.64817        20.51016
     2010.52977        12.87177        20.48808
     2010.53251         3.69037        22.15240
     2010.53525         5.07297        21.92884
     2010.53798         3.75157        21.02905
     2010.54072         3.87417        20.38871
     2010.54346         3.18177        20.45771
     2010.54620        -0.01763        20.41631
     2010.54893         0.23397        20.54328
     2010.55167         1.17157        20.72544
     2010.55441        11.87117        20.86897
     2010.55715         9.04077        20.41907
     2010.55989         8.06637        21.01249
     2010.56262         9.40897        21.16706
     2010.56536         2.82257        21.00421
     2010.56810         2.19318        22.17448
     2010.57084         4.14478        22.83414
     2010.57357         6.20338        21.29954
     2010.57631        10.13298        22.00060
     2010.57905         3.62458        20.77788
     2010.58179         0.01518        20.86345
     2010.58453        -2.99122        21.26090
     2010.58726        -2.87262        21.23054
     2010.59000         8.13398        22.45049
     2010.59274         2.73558        20.78064
     2010.59548         4.55318        20.60124
     2010.59822        -2.02722        19.72353
     2010.60095        -2.03562        19.95262
     2010.60369         1.86099        21.44858
     2010.60643         5.72059        20.60952
     2010.60917         4.39719        22.56366
     2010.61190         5.00579        20.89381
     2010.61464         7.16439        19.93882
     2010.61738         1.32099        20.52948
     2010.62012         1.23759        20.12927
     2010.62286        -3.59981        22.56642
     2010.62559        -1.89221        21.86812
     2010.62833         2.30539        20.19827
     2010.63107        -1.21301        20.60952
     2010.63381         0.58759        19.96366
     2010.63655        -1.94681        20.09338
     2010.63928         1.98180        19.98022
     2010.64202         0.69240        20.13203
     2010.64750         6.76860        23.23436
     2010.67214        -4.98199        19.44477
     2010.67488        -7.40939        19.68489
     2010.67761        -2.99179        19.91398
     2010.68035         1.35981        21.31058
     2010.68309        -6.29859        21.35474
     2010.68583         1.97601        19.69317
     2010.68856        -8.53539        20.13479
     2010.69130        -5.87579        19.63245
     2010.69404       -11.32619        19.94434
     2010.69678       -12.61459        19.45857
     2010.69952       -13.33199        20.24795
     2010.70225       -15.04639        20.91589
     2010.70499       -15.72479        19.77045
     2010.70773       -15.84919        19.81186
     2010.71047       -15.14959        20.31143
     2010.71321       -12.22899        19.70145
     2010.71594       -15.27239        19.75389
     2010.71868       -13.36279        19.65177
     2010.72142       -10.06919        20.80824
     2010.72416       -18.74459        20.09614
     2010.72689        -8.92599        20.12927
     2010.72963       -16.80739        23.11015
     2010.73237       -11.61279        20.16791
     2010.73511        -6.81019        20.41631
     2010.73785        -8.75159        21.74391
     2010.74058        -9.72399        20.80824
     2010.74332       -16.76038        20.25899
     2010.74606       -14.48678        20.09890
     2010.74880       -16.89618        20.63988
     2010.75154       -10.15558        19.59381
     2010.75427        -8.03398        19.98022
     2010.75701        -7.68438        20.00506
     2010.75975       -14.10678        20.97109
     2010.76249       -10.03618        21.44306
     2010.76522       -10.51758        20.70612
     2010.76796       -17.85098        20.39423
     2010.77070       -17.51938        20.59572
     2010.77344       -21.63978        20.02162
     2010.77618       -16.02418        21.28574
     2010.77891       -14.54457        21.99784
     2010.78165       -16.90197        20.34455
     2010.78439       -13.85837        20.31971
     2010.78713       -12.25277        20.93797
     2010.78987        -7.89717        20.55432
     2010.79260       -15.05657        20.66748
     2010.79534       -21.08297        20.67300
     2010.84188       -22.89976        20.67852
     2010.84462       -22.10216        20.15687
     2010.84736       -21.82555        19.98298
     2010.85010       -14.00195        20.05198
     2010.85284       -17.60735        20.47428
     2010.85557       -16.46675        19.82566
     2010.85831        -9.28015        19.83394
     2010.86105       -16.09455        21.91228
     2010.86379       -13.49695        22.21037
     2010.86653       -10.61735        20.52396
     2010.86926       -16.53675        20.98765
     2010.87200       -12.54615        20.31695
     2010.87474       -14.86855        20.70336
     2010.87748       -14.46895        20.15687
     2010.88021       -19.62835        19.86430
     2010.88295       -22.64375        20.20655
     2010.88569       -30.34115        19.63521
     2010.88843       -23.06355        21.34646
     2010.89117       -19.31395        22.24625
     2010.89390       -22.34835        20.83585
     2010.89664       -25.67975        20.16791
     2010.89938       -31.26515        19.61313
     2010.90212       -31.01455        19.75665
     2010.90485       -36.55095        19.83946
     2010.90759       -35.96334        21.42926
     2010.91033       -20.69874        20.23967
     2010.91307       -25.90514        20.76132
     2010.91581       -21.74054        19.30400
     2010.91854       -28.48694        19.39784
     2010.92128       -28.74834        19.32056
     2010.92402       -20.28074        19.47237
     2010.92676       -17.54914        19.36196
     2010.92950       -20.99554        19.36472
     2010.93223       -14.19994        21.34094
     2010.93497       -15.37534        19.68489
     2010.93771       -11.77474        19.38404
     2010.94045       -25.05414        19.87810
     2010.94318       -17.32254        19.33712
     2010.94592       -16.98594        20.01886
     2010.94866       -19.54434        20.70060
     2010.95140       -17.03373        24.65304
     2010.95414       -25.84313        21.02629
     2010.95687       -26.26153        19.95814
     2010.95961       -28.42493        20.41907
     2010.96235       -32.46633        19.56897
     2010.96509       -21.81273        19.99678
     2010.96783       -26.17313        21.64731
     2010.97056       -27.46053        19.57725
     2010.97330       -27.69993        19.44477
     2010.97604       -25.82933        19.69593
     2010.97878       -25.87173        20.02162
     2010.99520       -22.53912        20.45495
     2010.99794       -30.50152        20.65368
     2011.00342       -26.98932        20.21483
     2011.00616       -20.39572        20.09062
     2011.00889       -24.99912        20.86621
     2011.01163       -19.98152        19.54689
     2011.01437       -21.77792        20.39699
     2011.01711       -12.20632        23.20951
     2011.01984       -19.22172        22.38977
     2011.02258       -15.64911        21.58935
     2011.02532       -15.22051        20.43563
     2011.02806       -16.55691        22.21313
     2011.03080       -24.02131        20.52120
     2011.03353       -19.54171        21.44582
     2011.03627       -16.06611        21.00973
     2011.03901       -16.69651        20.10718
     2011.04175       -15.82791        19.94434
     2011.04449       -21.26631        20.07958
     2011.04722       -19.54971        20.65920
     2011.04996       -19.35611        21.62523
     2011.05270       -23.36151        20.20103
     2011.05544       -23.02090        20.26451
     2011.05817       -20.42730        19.53033
     2011.06091       -29.95370        19.59105
     2011.06365       -24.50210        19.53585
     2011.06639       -27.31450        21.55899
     2011.06913       -24.91190        21.04837
     2011.07186       -23.71530        19.85602
     2011.07460       -20.87070        20.65368
     2011.07734       -14.45710        20.25899
     2011.08008       -12.97550        19.61589
     2011.08282       -25.00390        19.97746
     2011.08555       -20.41030        20.25899
     2011.08829       -21.97770        20.38043
     2011.09103       -17.51710        20.15963
     2011.09377       -15.83250        20.87725
     2011.09650       -14.84390        21.73011
     2011.09924       -21.51330        22.54158
     2011.10198       -19.64970        20.38319
     2011.10472       -21.33210        20.09338
     2011.10746       -24.96450        19.64349
     2011.11019       -23.18790        20.27831
     2011.11293       -20.74330        20.49084
     2011.11567       -16.78370        20.46047
     2011.11841       -18.88410        19.82566
     2011.12115       -21.11850        21.72183
     2011.12388       -26.10990        22.34837
     2011.12662       -20.43529        20.12374
     2011.12936       -23.74169        19.86154
     2011.13210       -18.94709        21.99784
     2011.13483       -18.98549        21.16154
     2011.13757       -16.44589        24.70548
     2011.14031       -21.99929        21.76323
     2011.14305       -17.00169        20.91037
     2011.14579        -8.93309        20.97385
     2011.14852        -7.83449        19.35644
     2011.16495       -18.57188        21.61419
     2011.16769       -18.43528        21.22226
     2011.17043       -28.70368        23.10187
     2011.17316       -26.22208        19.97470
     2011.17590       -26.42948        20.34731
     2011.17864       -15.73588        21.69699
     2011.18138       -23.38828        21.66939
     2011.18412       -18.37068        21.37406
     2011.18685       -23.94308        22.87002
     2011.18959       -22.78548        21.04285
     2011.19233       -25.14288        20.64540
     2011.19507       -15.50627        20.41355
     2011.19780        -9.44967        19.81462
     2011.20054        -4.48907        19.46409
     2011.20328       -15.50547        20.20103
     2011.20602       -15.76787        20.68680
     2011.20876       -20.75927        19.79254
     2011.21149       -16.42267        19.72077
     2011.21423       -15.68107        20.53776
     2011.21697       -15.98647        20.97661
     2011.21971       -20.43187        20.73924
     2011.22245       -27.94627        22.23245
     2011.22518       -31.34167        19.70145
     2011.22792       -24.01707        19.70145
     2011.23066       -25.99446        20.08234
     2011.23340       -26.67186        19.84222
     2011.23613       -22.43226        19.76217
     2011.23887       -19.68666        19.71801
     2011.24161       -20.37506        19.97470
     2011.24435       -18.64346        21.88192
     2011.24709       -18.89486        22.89211
     2011.24982       -18.30226        22.58298
     2011.25256       -16.94466        24.76068
     2011.25530       -17.74206        21.03457
     2011.25804       -10.92246        20.64816
     2011.26078       -12.33386        23.46068
     2011.26351       -15.77026        20.27555
     2011.26625       -25.27566        20.56812
     2011.26899       -20.75406        22.83414
     2011.27173       -24.07646        21.61419
     2011.27446       -19.69886        22.42565
     2011.27720       -17.60826        22.83138
     2011.27994       -14.42466        21.06217
     2011.28268       -20.31806        19.69869
     2011.28542       -17.58446        20.01886
     2011.28815       -18.74286        19.42544
     2011.29089       -21.07726        19.77045
     2011.29363       -18.63766        21.25538
     2011.29637       -22.96806        19.73181
     2011.29911       -19.08645        20.21483
     2011.30184       -20.39585        20.04370
     2011.30458       -23.49225        20.10718
     2011.30732       -25.94465        20.15411
     2011.31006       -25.30505        20.91313
     2011.31553       -24.38485        19.63521
     2011.31827       -26.05825        19.46409
     2011.32101       -32.33565        20.75028
     2011.32375       -34.37605        20.49084
     2011.32648       -31.31245        23.75325
     2011.32922       -40.21885        23.00251
     2011.33196       -30.88725        24.79656
     2011.33470       -39.32764        22.26005
     2011.33744       -32.73904        20.91589
     2011.34017       -32.62644        20.10442
     2011.34291       -30.73584        19.94434
     2011.34565       -36.82024        21.31886
     2011.34839       -40.30764        20.17619
     2011.35112       -31.57904        20.12098
     2011.35386       -29.72144        20.57364
     2011.35660       -29.21784        20.13203
     2011.35934       -30.92024        19.68765
     2011.36208       -31.02164        19.57725
     2011.36481       -24.87904        20.12098
     2011.36755       -22.46144        21.09529
     2011.37029       -26.53483        21.71631
     2011.37303       -24.19623        21.21950
     2011.37577       -25.87963        20.53776
     2011.37850       -25.57103        19.84498
     2011.38124       -28.44643        20.03818
     2011.38398       -21.26583        20.58192
     2011.38672       -19.43023        20.04646
     2011.38945       -23.06563        20.31143
     2011.39219       -25.16003        20.14031
     2011.39493       -21.53643        20.06578
     2011.39767       -17.68483        20.50188
     2011.40041       -12.95323        21.80463
     2011.40314        -8.34962        21.47618
     2011.40588       -16.28902        24.61164
     2011.40862       -14.60742        21.38786
     2011.41136       -15.12882        21.71907
     2011.41410       -14.78022        21.45962
     2011.41683       -11.63662        22.78722
     2011.41957       -20.30602        20.20379
     2011.42231       -24.25942        20.02162
     2011.42505       -10.71282        23.10739
     2011.42778       -21.59022        20.12098
     2011.43052       -24.98562        20.79996
     2011.43326       -27.19002        22.15516
     2011.43600       -28.47142        22.95007
     2011.43874       -21.41582        20.50464
     2011.44147       -22.90022        21.12013
     2011.44421       -24.43862        20.61228
     2011.44695       -22.57802        21.28298
     2011.44969       -25.43842        20.69784
     2011.45243       -22.93481        20.51016
     2011.45516       -24.35621        20.64816
     2011.45790       -18.30061        22.53606
     2011.46064       -25.43901        20.15411
     2011.47433       -16.10101        23.19847
     2011.48254       -26.11821        21.02905
     2011.48528       -31.83361        20.13755
     2011.48802       -22.85401        19.90570
     2011.49076       -24.94141        19.86430
     2011.49349       -28.55781        20.15411
     2011.49623       -27.83421        21.85432
     2011.49897       -28.51961        19.98574
     2011.50171       -24.65801        20.63160
     2011.50444       -18.33941        20.89933
     2011.50718       -24.67380        20.49912
     2011.50992       -26.65820        20.45771
     2011.51266       -28.70560        20.47704
     2011.51540       -27.17900        20.53500
     2011.51813       -26.60240        21.31886
     2011.52087       -19.13280        21.77979
     2011.52361       -27.25220        22.53606
     2011.52635       -29.89160        22.24073
     2011.52908       -26.52000        20.53776
     2011.53182       -24.90440        22.79274
     2011.53456       -13.40180        21.74667
     2011.53730       -21.58720        20.28107
     2011.54004       -22.75460        20.64264
     2011.54277       -25.49999        20.94073
     2011.54551       -25.23539        21.63627
     2011.54825       -20.91779        22.62438
     2011.55099       -22.30719        21.51207
     2011.55373       -22.44559        23.35304
     2011.55646       -26.05199        22.84242
     2011.55920       -30.20739        20.19551
     2011.56194       -22.99479        21.33266
     2011.56468       -20.20919        20.73924
     2011.56741       -17.93059        20.37215
     2011.57015       -21.56599        20.54052
     2011.57289       -27.40439        20.63436
     2011.57563       -23.98779        20.43839
     2011.57837       -23.79118        21.80463
     2011.58110       -27.40458        20.70060
     2011.58384       -27.48298        20.39423
     2011.58658       -28.16438        21.15049
     2011.58932       -23.29578        20.03818
     2011.59206       -30.40818        20.81376
     2011.59479       -27.20758        22.52501
     2011.59753       -19.73398        21.54519
     2011.60027       -23.85638        22.08892
     2011.60301       -22.52378        21.36302
     2011.60574       -25.34018        20.70612
     2011.60848       -17.54958        22.37321
     2011.61122       -14.68597        21.64179
     2011.61396       -21.15637        20.72268
     2011.61670       -20.69077        21.74115
     2011.62042       -21.49459        40.46554
     2011.62217       -30.44657        22.67682
     2011.62491       -26.57197        20.69508
     2011.62765       -24.13437        20.39975
     2011.63039       -22.86077        20.23691
     2011.63312       -25.28317        20.59020
     2011.64407       -29.78977        20.92693
     2011.64681       -29.97717        22.54158
     2011.64955       -25.11957        21.79911
     2011.65229       -24.89097        22.80102
     2011.65503       -20.48537        21.15878
     2011.65776       -17.98877        21.08425
     2011.66050       -18.24917        22.15516
     2011.66324       -16.46057        20.65092
     2011.66598       -16.08597        21.28022
     2011.66872       -20.73637        21.75771
     2011.67145       -29.69277        23.83329
     2011.67419       -25.48117        22.64646
     2011.67693       -20.24257        21.95368
     2011.67967       -22.57597        23.91058
     2011.68240       -19.58936        21.98128
     2011.68514       -21.81876        20.91589
     2011.68788       -22.41816        22.74030
     2011.69062       -27.17756        24.15070
     2011.69336       -22.80296        24.01546
     2011.69609       -27.96736        25.98616
     2011.69883       -24.17376        22.41185
     2011.70157       -25.77416        21.35750
     2011.70431       -25.35056        21.40166
     2011.70705       -23.04696        22.68234
     2011.70978       -19.49436        27.00186
     2011.71252       -22.76576        22.29041
     2011.71526       -29.93616        21.33266
     2011.71800       -31.26155        22.32353
     2011.72073       -27.33095        23.91886
     2011.72347       -31.09735        21.93988
     2011.72621       -30.35175        21.27746
     2011.72895       -29.08415        21.57831
     2011.73169       -30.02355        21.58383
     2011.73442       -27.77895        25.14433
     2011.73716       -33.90635        23.74773
     2011.73990       -33.39575        24.45983
     2011.74264       -25.59615        22.43669
     2011.74538       -41.04155        22.69338
     2011.74812       -32.69232        26.54645
     2011.75085       -28.47134        25.54730
     2011.75359       -28.87374        24.62268
     2011.75633       -28.90714        24.72480
     2011.75906       -34.13954        26.71206
     2011.76180       -41.79694        25.11397
     2011.76454       -36.46634        21.79635
     2011.76728       -33.44174        23.94094
     2011.77002       -28.41414        24.66132
     2011.77275       -26.45954        21.60867
     2011.77549       -24.84794        22.21037
     2011.77823       -33.64534        22.56366
     2011.78097       -33.72774        23.69529
     2011.78371       -35.70214        23.21503
     2011.78644       -36.79053        25.06705
     2011.78918       -40.41593        25.52798
     2011.79192       -37.00871        23.62629
     2011.79466       -36.73173        22.50569
     2011.79739       -34.57713        24.10102
     2011.80013       -25.03253        23.27852
     2011.80287       -27.44993        23.06875
     2011.80561       -34.26333        22.27661
     2011.80835       -35.05073        23.60697
     2011.81108       -33.27713        26.90526
     2011.81382       -29.26853        25.45622
     2011.81656       -33.77693        22.49465
     2011.81930       -31.48233        22.30697
     2011.82203       -32.35973        21.37406
     2011.82477       -30.04913        22.01992
     2011.82751       -34.53453        24.36599
     2011.83025       -40.80393        28.93392
     2011.83299       -40.26533        28.74072
     2011.83572       -37.06573        25.29890
     2011.83846       -36.68713        21.73011
     2011.84120       -29.21053        23.23160
     2011.84394       -23.70393        22.54434
     2011.84668       -17.94933        22.53882
     2011.84941       -23.12473        22.07788
     2011.85215       -29.56513        25.90059
     2011.85489       -33.02952        21.63075
     2011.85763       -37.23192        24.89868
     2011.86037       -33.90069        23.10739
     2011.86310       -36.88872        22.51121
     2011.86584       -27.24312        21.87364
     2011.86858       -37.19952        22.06408
     2011.87132       -28.97692        30.23116
     2011.87405       -27.84032        24.06238
     2011.87679       -22.41272        24.40463
     2011.87953       -28.56612        23.35304
     2011.88227       -25.56552        22.35113
     2011.88501       -22.82292        23.59593
     2011.88775       -19.29769        28.16110
     2011.89048       -32.75071        27.01291
     2011.89322       -22.73411        23.54072
     2011.89596       -24.14651        24.34115
     2011.89869       -18.20591        23.09083
     2011.90143       -19.73631        21.90400
     2011.90417       -22.97371        25.42034
     2011.90691       -21.93811        22.78722
     2011.90965       -20.88989        25.94475
     2011.91238       -29.15791        25.45346
     2011.91512       -17.77531        23.03839
     2011.91786       -15.23271        23.33096
     2011.92060       -13.24811        25.85367
     2011.92334       -25.04451        24.66132
     2011.92607       -19.15290        21.98956
     2011.92881       -13.95030        22.30421
     2011.93155       -14.20370        21.60867
     2011.93429       -27.95010        22.61610
     2011.93702       -24.92350        23.52140
     2011.93976       -18.33190        25.73499
     2011.94250       -18.41930        24.19486
     2011.94524       -21.42070        23.14327
     2011.94798       -22.22510        22.80378
     2011.95071       -27.50650        21.64179
     2011.95345       -19.89390        21.13393
     2011.95619       -19.63930        20.96281
     2011.95893       -23.80670        20.64540
     2011.96167       -21.72109        21.07873
     2011.96440       -20.42249        21.67491
     2011.96714       -15.53289        22.82034
     2011.96988       -19.93129        21.79083
     2011.97535       -23.32709        21.05941
     2011.98357       -16.14529        20.46047
     2011.98631       -24.05569        20.57088
     2011.98904       -29.47009        21.58107
     2011.99178       -21.50149        24.09274
     2011.99452       -17.98588        23.30336
     2011.99726       -15.40828        21.17534
     2012.00273       -16.09608        20.98765
     2012.00547       -20.13148        23.41652
     2012.00821       -25.63488        20.92141
     2012.01095       -31.90028        21.13669
     2012.01368       -22.35768        23.09911
     2012.01643       -28.51446        23.80017
     2012.01916       -22.16848        22.25453
     2012.02190       -20.44788        22.67130
     2012.02464       -27.85328        22.70718
     2012.02737       -31.60968        21.28298
     2012.03011       -27.24208        20.97109
     2012.03285       -23.80948        21.05113
     2012.03559       -24.73588        20.62332
     2012.03833       -20.42628        21.69975
     2012.04106        -9.92868        23.64561
     2012.04380       -17.46208        21.82671
     2012.04654       -10.23448        23.54072
     2012.04928       -17.25788        21.43202
     2012.05201       -23.77628        21.91780
     2012.05475       -25.28468        23.89677
     2012.05749       -22.78108        27.66704
     2012.06023       -25.41748        21.72183
     2012.06297       -23.44888        25.06153
     2012.06570       -24.06127        23.94646
     2012.06844       -25.64867        23.42756
     2012.07118       -26.68207        23.37788
     2012.07392       -17.02147        21.35750
     2012.07666       -24.67987        23.27852
     2012.07939       -14.81527        23.55176
     2012.08213       -21.80367        21.16982
     2012.08487       -21.00107        22.23521
     2012.08761       -27.24447        21.26642
     2012.09035       -21.69361        25.43690
     2012.09308       -12.99327        25.74327
     2012.09582       -24.54767        24.87108
     2012.09856       -19.24306        22.77894
     2012.10130       -24.19646        24.92628
     2012.10403       -22.46286        22.23797
     2012.10677       -20.45226        22.56090
     2012.10951       -24.81966        21.65007
     2012.11225       -24.77106        21.97852
     2012.11498       -23.92246        21.68871
     2012.11772       -16.72686        24.24178
     2012.12046       -13.93626        22.78170
     2012.12320       -13.29466        22.28489
     2012.12594       -12.41006        21.88468
     2012.12867       -17.64646        21.18914
     2012.13141       -19.11086        21.62799
     2012.13415       -19.34825        24.54815
     2012.13689       -16.26965        25.58870
     2012.14784       -13.49925        21.68595
     2012.15331        -9.69205        22.05304
     2012.15879        -8.74985        22.10824
     2012.16153        -9.45725        21.90952
     2012.16427        -3.20765        25.50590
     2012.16700       -11.44405        27.78021
     2012.16974       -12.33044        23.83881
     2012.17248       -12.16484        22.48085
     2012.17522        -6.09124        22.85898
     2012.17796       -10.56364        21.99784
     2012.18069       -16.68304        27.34687
     2012.18343       -21.13944        24.05962
     2012.18617       -27.47784        28.93944
     2012.18891       -11.40024        28.08934
     2012.19164       -15.98964        21.92056
     2012.19439       -14.74441        23.53796
     2012.19713       -13.90681        25.40378
     2012.19986       -13.96684        24.98425
     2012.20260       -22.73624        25.43138
     2012.20533       -13.84664        28.55027
     2012.20807       -11.96304        24.76896
     2012.21081       -17.57244        24.05962
     2012.21355       -15.14484        23.07151
     2012.21629       -16.44324        22.62990
     2012.21902       -16.25064        22.19933
     2012.22176       -21.05204        20.81929
     2012.22450       -21.02244        22.12480
     2012.22724       -17.98684        22.59402
     2012.22997       -17.02624        21.68595
     2012.23271       -12.73664        21.01801
     2012.23545       -11.17704        24.08446
     2012.23819       -17.10243        24.22798
     2012.24093       -17.17983        21.01249
     2012.24366       -25.25223        21.32714
     2012.24640       -15.30163        21.51483
     2012.24914       -15.29303        22.73478
     2012.25188       -20.26543        21.87088
     2012.25462       -19.08783        21.58107
     2012.25735       -16.34123        22.66854
     2012.26009       -15.18763        23.28128
     2012.26283       -10.18403        21.42374
     2012.26557       -13.68043        21.69147
     2012.26830        -5.28383        20.15687
     2012.27104       -10.66423        21.11185
     2012.27378        -9.32362        21.26642
     2012.27652       -11.17502        21.08701
     2012.27833       -26.49188        41.47021
     2012.29953       -20.63235        44.72710
     2012.30116       -12.77462        21.89296
     2012.30390       -14.96102        21.76875
     2012.30663        -9.06042        22.53882
     2012.30937       -11.48581        22.59126
     2012.32032       -11.31941        21.32162
     2012.32306       -13.39681        22.29593
     2012.32580       -18.79121        21.40994
     2012.32854       -11.44761        20.27003
     2012.33128       -13.46801        21.96748
     2012.33401       -16.58341        22.52777
     2012.33675       -14.69181        20.94349
     2012.33949       -18.82421        20.45219
     2012.34223       -15.04160        20.35559
     2012.34496       -15.95800        20.38595
     2012.34770        -4.38940        21.30230
     2012.35044       -12.18280        21.24158
     2012.35318       -15.65220        24.54539
     2012.35592       -11.32660        22.37873
     2012.35865       -11.44000        23.21227
     2012.36139       -15.02140        22.12480
     2012.36413       -12.78580        24.19486
     2012.36687       -10.33520        21.15601
     2012.36961       -14.64760        20.88277
     2012.37234       -12.08500        21.63903
     2012.37508        -8.73040        20.62056
     2012.37898        -5.27642        62.88291
     2012.38056       -11.66720        19.93882
     2012.38329        -7.88560        20.52672
     2012.38603        -6.34700        19.93882
     2012.38877       -13.35740        24.96769
     2012.39151        -6.87680        20.54604
     2012.39425        -2.83520        20.38871
     2012.39698        -1.32560        21.50102
     2012.39972        -2.66200        19.49169
     2012.40246        -7.76240        19.63521
     2012.40520        -7.44680        19.74837
     2012.40794       -10.70520        19.79806
     2012.41067       -10.55260        20.51568
     2012.41341       -17.02299        19.95262
     2012.41615       -10.58039        19.44201
     2012.41889       -13.91379        20.43011
     2012.42162       -13.65019        20.44667
     2012.42436        -8.33359        21.69699
     2012.42710       -15.47399        22.40357
     2012.42984       -11.04639        22.22417
     2012.43258       -12.43079        20.60400
     2012.43531        -8.17519        20.18447
     2012.43805        -8.18759        19.60761
     2012.44079       -11.60399        19.70973
     2012.44353        -9.99939        20.60952
     2012.44626       -14.00578        21.76875
     2012.44900        -9.93618        19.46961
     2012.45174        -6.61258        19.79254
     2012.45448        -9.01098        19.41440
     2012.45722        -9.08738        20.75028
     2012.45995        -9.06978        22.80102
     2012.46269        -8.98318        20.23691
     2012.46543       -15.25258        19.99954
     2012.46817        -8.80998        19.64625
     2012.47091        -9.79638        19.58829
     2012.47364        -6.68878        20.24795
     2012.47638        -5.73818        19.85050
     2012.48459       -13.73337        21.02629
     2012.48733       -14.66177        19.38956
     2012.49007       -14.48517        19.45305
     2012.49281        -7.32357        20.28383
     2012.49555       -11.68597        24.38807
     2012.49828        -6.33437        20.99317
     2012.50102        -6.63777        21.26366
     2012.50376         0.28983        21.22502
     2012.50650       -10.96957        20.30039
     2012.50924       -10.41797        19.92502
     2012.51197       -10.23037        20.68956
     2012.51471       -13.49577        19.61313
     2012.51745        -8.84716        19.62417
     2012.52019        -9.29356        21.96472
     2012.52292       -19.97596        22.47809
     2012.52566        -4.66636        21.72735
     2012.52840        -4.18476        20.00506
     2012.53114        -6.36316        19.52757
     2012.53388        -4.10456        21.21122
     2012.53661        -7.50596        21.99232
     2012.53935        -3.92436        20.86069
     2012.54209        -0.55176        21.75771
     2012.54483        -9.24216        19.78702
     2012.54757        -8.17256        20.76960
     2012.55030         0.22405        20.52396
     2012.55304         3.92565        19.78426
     2012.55578         0.12425        19.93882
     2012.55852         1.94185        21.44306
     2012.56125        -3.77055        21.39614
     2012.56399        -3.43995        19.84222
     2012.56673        -1.60435        19.54413
     2012.56947        -8.55075        19.49721
     2012.57221        -4.49815        21.73839
     2012.57494        -7.25355        19.62693
     2012.57768        -1.24195        21.18086
     2012.58042       -10.19135        19.98022
     2012.58316        -3.26175        19.70973
     2012.58590        -6.76715        20.72820
     2012.58863        -6.69255        20.62884
     2012.59137        -7.30895        20.70336
     2012.59411        -7.47335        20.09890
     2012.59685        -2.55975        21.62523
     2012.59958        -2.80015        20.62608
     2012.60232        -7.58655        21.21398
     2012.60506        -3.14495        20.17067
     2012.60780         0.60965        19.35092
     2012.61054         1.09425        21.05389
     2012.61327        -2.74015        20.31971
     2012.61601        -8.07755        21.24434
     2012.61875        -4.52695        21.38786
     2012.62149        -4.63334        20.37491
     2012.62423       -11.46274        21.02905
     2012.62696       -10.46214        22.00336
     2012.63244       -11.21394        20.51844
     2012.64065        -4.92914        20.54604
     2012.64339        -0.90354        22.77066
     2012.64887        -1.00534        20.50740
     2012.65160         0.86626        20.92693
     2012.65434        -5.80814        20.03266
     2012.65708         5.53247        19.78426
     2012.65982         0.44807        20.34455
     2012.66256         3.38267        19.62969
     2012.66529         5.80127        19.58277
     2012.66803         4.28787        21.29678
     2012.67077         0.23247        21.52035
     2012.67351         8.96807        21.92884
     2012.67624         3.59467        21.26090
     2012.67898         4.39227        22.44221
     2012.68172        -2.16213        21.31334
     2012.68446        -0.36753        24.43223
     2012.68720         0.66007        23.25644
     2012.68993         0.39868        20.45495
     2012.69267        -1.19872        20.42459
     2012.69541         1.11388        20.65092
     2012.69815        11.42948        20.73096
     2012.70089         7.68108        21.30506
     2012.70362         8.28168        20.36387
     2012.70636         2.89428        21.77151
     2012.70910         0.09788        20.49084
     2012.71184        -2.75652        20.06302
     2012.71457         0.56408        23.47448
     2012.71731         0.52768        21.44858
     2012.72005        -0.14772        21.77427
     2012.72279         7.05388        20.56812
     2012.72553         1.07349        20.35835
     2012.72826        -0.57891        20.03542
     2012.73100        -6.32431        20.52396
     2012.73374         1.31929        20.98489
     2012.73648         7.39089        21.15049
     2012.73921         4.26649        20.64264
     2012.74195         5.25509        20.41631
     2012.74469        10.11269        20.37767
     2012.74743         8.13829        21.38510
     2012.75017         2.02489        22.76514
     2012.75290         3.05749        20.72544
     2012.75564         2.40809        20.37215
     2012.75838         8.31369        19.55517
     2012.76112         8.60229        20.99041
     2012.76386         8.18889        25.06153
     2012.76659         3.18049        20.93521
     2012.76933        11.78109        23.31992
     2012.77207         7.92169        22.70994
     2012.77481        18.07229        22.63266
     2012.77754         0.98089        21.85432
     2012.78028        -5.56151        23.56833
     2012.78302        -3.51091        27.66980
     2012.78576        -1.57731        25.40654
     2012.78850        -1.15571        21.19742
     2012.79123         3.80889        21.27470
     2012.79397         4.30850        21.68319
     2012.79671         2.30410        21.81291
     2012.79945         1.97870        20.99869
     2012.80219         1.45930        21.24986
     2012.80492         7.00290        21.89572
     2012.80766         1.06650        21.67215
     2012.81040         2.83210        24.03754
     2012.81314        -1.78030        21.71907
     2012.81587        -6.35070        20.75580
     2012.81861         4.32590        21.64179
     2012.82135         7.40050        21.46514
     2012.82409         9.55510        20.51292
     2012.82683        10.90470        20.16239
     2012.82956        10.89431        20.60124
     2012.83230         9.32091        21.26090
     2012.83504        15.46351        24.15346
     2012.83778         3.10511        20.92969
     2012.84052         8.96571        20.15411
     2012.84325        12.84131        20.17067
     2012.84599        16.34691        21.34922
     2012.84873        13.74151        21.68319
     2012.85147        13.57611        23.28404
     2012.85420        16.77571        20.03542
     2012.85694        11.70331        19.94434
     2012.85968        15.84191        20.52120
     2012.86242        15.97851        20.21759
     2012.86516        21.77512        21.25538
     2012.86789        15.49372        27.41864
     2012.87064        13.50494        24.18658
     2012.87337        18.04992        20.09614
     2012.87611        18.90252        21.67491
     2012.87885        16.73612        21.98956
     2012.88158        21.18872        21.59487
     2012.88432        20.96432        21.73011
     2012.88706        19.13592        31.00950
     2012.88980        19.29752        24.18934
     2012.89253        16.73712        20.10442
     2012.89527        10.62672        21.13393
     2012.89801         7.60732        23.36960
     2012.90075        12.35193        21.28298
     2012.90349        11.68153        20.53776
     2012.90622        13.81813        19.98022
     2012.90896        11.12073        20.76132
     2012.91170        10.42133        20.23691
     2012.91444        13.31293        19.53861
     2012.91718        15.45753        19.90018
     2012.91991        24.52713        21.97852
     2012.92265        16.80873        21.22502
     2012.92539        15.54933        20.67024
     2012.92813        14.40693        19.79530
     2012.93086        14.94253        20.39699
     2012.93360        12.65013        20.40527
     2012.93634        16.96073        19.78426
     2012.93908        17.30233        20.73648
     2012.94182        11.86593        20.28659
     2012.94455        18.81053        19.64073
     2012.94729        12.48813        20.33903
     2012.95003        19.37573        20.36663
     2012.95277        19.96533        20.15411
     2012.95551        18.57494        22.72098
     2012.95824        12.52554        21.65835
     2012.96098        16.63814        22.75962
     2012.96372        10.21074        23.28404
     2012.96646        18.95934        21.08425
     2012.96919        14.73694        21.68871
     2012.97193        13.26354        20.27279
     2012.97741        15.41474        20.94073
     2012.97959        13.62309        25.72947
     2012.98836        23.76814        19.60209
     2012.99110        19.29674        20.35007
     2012.99384        26.22134        20.09062
     2012.99657        27.05994        21.58383
     2012.99931        21.81554        19.93054
     2013.00205        25.73214        19.71525
     2013.00479        24.53275        21.12841
     2013.00752        26.84535        19.62969
     2013.01026        22.85195        20.35835
     2013.01183        19.91591        60.68312
     2013.01662        12.93497        37.91246
     2013.01848        18.23375        20.12651
     2013.02121        20.26735        21.08977
     2013.02395        13.05395        20.91865
     2013.02669        18.79055        21.03733
     2013.02943        17.39215        20.20103
     2013.03216        14.06475        20.50464
     2013.03490        12.48635        24.38255
     2013.03764        12.98696        22.16620
     2013.04038        11.22556        20.52672
     2013.04312        17.39116        21.33542
     2013.04585        16.11376        25.26853
     2013.04859        10.81636        22.47257
     2013.05133        14.89896        20.85241
     2013.05407        16.26356        22.10548
     2013.05681        12.10116        20.17343
     2013.05954        18.93776        20.25071
     2013.06228        16.87836        20.81100
     2013.06502        22.58096        20.54328
     2013.06776        23.72856        21.33542
     2013.07049        34.07716        28.54199
     2013.07323        30.86777        20.52396
     2013.07597        33.18137        20.29487
     2013.07871        28.94397        20.51292
     2013.08145        28.84757        19.61589
     2013.08418        25.49817        19.98022
     2013.08692        25.44377        20.38043
     2013.08966        26.26537        22.89487
     2013.09240        27.44697        21.06217
     2013.09514        26.97357        20.33075
     2013.09787        18.03617        21.49274
     2013.10061        28.16577        21.09253
     2013.10335        26.79337        21.56175
     2013.10609        30.06197        21.18638
     2013.10882        31.77458        19.62969
     2013.11156        32.96818        21.59763
     2013.11430        27.32378        21.01525
     2013.11704        17.40938        20.41355
     2013.11978        25.46798        22.67958
     2013.12251        32.21358        21.55071
     2013.12525        27.44018        19.84222
     2013.12799        24.94978        20.70612
     2013.13073        27.07538        20.87449
     2013.13347        23.62098        19.85050
     2013.13620        34.93258        21.21674
     2013.13894        28.73218        21.10081
     2013.14168        38.10478        21.75771
     2013.14442        27.15138        23.29232
     2013.14989        26.85658        20.45219
     2013.15263        23.57818        19.69869
     2013.15537        20.99378        20.70888
     2013.15811        25.93438        19.76769
     2013.16084        20.30098        20.26451
     2013.16358        19.81258        21.77427
     2013.16632        19.53518        23.92162
     2013.16906        27.66478        21.61695
     2013.17180        19.14038        20.89657
     2013.17453        20.76398        20.66196
     2013.17727        22.67259        20.57364
     2013.18001        12.23219        19.96090
     2013.18275        23.47479        19.86430
     2013.18548        11.42639        20.70336
     2013.18822        10.04899        19.77873
     2013.19096        20.04759        19.65453
     2013.19370        25.33819        20.12927
     2013.19644        24.03579        20.07958
     2013.19917        29.46639        21.24986
     2013.20191        19.36099        20.82757
     2013.20465        18.89259        23.63457
     2013.20739        28.96119        24.63924
     2013.21013        14.18779        20.63712
     2013.21286        16.34040        20.14031
     2013.21560        23.24200        23.82501
     2013.21834        19.23860        20.51292
     2013.22108        17.55020        20.45771
     2013.22381        16.91980        22.70994
     2013.22655        26.02240        20.35283
     2013.22929        27.12300        19.91674
     2013.23203        29.89560        19.80358
     2013.23477        36.80520        22.83966
     2013.23750        35.40380        21.05941
     2013.24024        33.52040        22.31801
     2013.24298        33.14800        21.45962
     2013.24572        41.85360        20.99593
     2013.24846        32.06421        22.67958
     2013.25119        27.61881        20.76960
     2013.25393        25.96741        20.36663
     2013.25667        30.06901        21.24986
     2013.25941        32.95961        21.31610
     2013.26214        30.14421        21.18086
     2013.26488        35.78681        20.44943
     2013.26762        29.90641        20.07406
     2013.27036        30.17501        21.28022
     2013.27310        37.46461        20.70888
     2013.27583        33.73321        21.07045
     2013.27858        32.56544        21.99232
     2013.28131        29.23542        20.65368
     2013.28405        28.90302        21.65007
     2013.28679        36.37662        20.36663
     2013.28952        35.90722        21.23882
     2013.29226        32.06382        21.10633
     2013.29500        34.87042        20.65920
     2013.29774        37.53702        20.25071
     2013.30047        30.65162        20.76132
     2013.30321        37.30422        20.15963
     2013.30595        37.22882        20.71992
     2013.30869        34.63342        20.41907
     2013.31143        34.71402        22.78998
     2013.31416        30.96362        22.12204
     2013.31690        37.49622        24.08722
     2013.31964        36.44182        21.96748
     2013.32238        42.70142        20.68956
     2013.32512        34.95602        20.96005
     2013.32785        27.28662        21.24434
     2013.33059        26.62822        23.12947
     2013.33333        39.04182        22.46705
     2013.33607        40.60542        20.49084
     2013.33880        41.04702        21.15601
     2013.34154        36.78462        21.05665
     2013.34428        29.83622        22.12480
     2013.34702        43.30882        21.84880
     2013.34976        44.67942        21.72183
     2013.35249        38.72803        20.46599
     2013.35523        35.78663        21.12841
     2013.35797        40.03923        20.83585
     2013.36071        35.52983        20.22311
     2013.36344        35.75243        20.84965
     2013.36618        37.81003        22.01164
     2013.36892        43.24063        20.38871
     2013.37166        38.63123        20.65368
     2013.37440        41.47883        20.88001
     2013.37713        42.39243        21.32714
     2013.37987        45.71603        21.59487
     2013.38261        37.38463        21.73011
     2013.38535        40.86724        21.15878
     2013.38809        39.74584        22.29317
     2013.39082        45.78244        21.20018
     2013.39356        39.81004        24.60336
     2013.39630        43.29664        23.43032
     2013.39904        41.58224        23.21227
     2013.40177        46.70684        22.04200
     2013.40451        47.77444        20.83585
     2013.40725        39.88804        20.06302
     2013.40999        46.85464        20.38319
     2013.41273        39.05324        20.71440
     2013.41546        49.44084        29.27065
     2013.41820        44.02044        23.81397
     2013.42094        44.18105        21.63627
     2013.42368        39.72865        20.83585
     2013.42642        44.38725        21.01801
     2013.42915        44.65085        22.52501
     2013.43189        41.64645        22.38425
     2013.43463        48.51205        20.92693
     2013.43737        42.67065        21.00421
     2013.44010        48.88125        21.27470
     2013.44284        44.89385        21.83775
     2013.44558        49.39645        21.09529
     2013.44832        45.17805        20.60400
     2013.45106        43.85065        20.25899
     2013.45379        48.71025        21.03457
     2013.45653        49.32886        20.34455
     2013.45927        51.67746        20.56536
     2013.46201        49.69606        22.42289
     2013.46475        48.65366        20.36387
     2013.46748        46.50526        21.20570
     2013.47022        39.82086        21.16982
     2013.47296        41.69246        23.96854
     2013.81891      4337.75110        52.10203
     2013.82614      4344.63794        26.28976
     2013.82888      4339.90054        27.47936
     2013.83162      4343.59214        24.94561
     2013.83436      4347.22274        26.08552
     2013.83709      4347.47634        24.48467
     2013.83983      4357.55595        25.55282
     2013.84257      4355.76455        27.68636
     2013.84531      4352.62415        23.19571
     2013.84804      4349.21475        22.81482
     2013.85078      4336.82235        30.61481
     2013.85352      4343.34795        22.57746
     2013.85626      4335.77555        29.13265
     2013.85900      4341.84315        29.77299
     2013.86174      4337.49838        31.42351
     2013.86447      4335.83435        22.53882
     2013.86721      4339.48395        22.38425
     2013.86995      4337.00255        23.23436
     2013.87269      4338.84515        27.96513
     2013.87543      4339.23438        25.51142
     2013.87816      4341.58035        23.77533
     2013.88090      4341.35395        22.37045
     2013.88364      4345.39155        24.27491
     2013.88637      4346.59415        23.86365
     2013.88911      4340.82575        22.56366
     2013.89185      4336.31135        22.69062
     2013.89459      4331.65195        26.24008
     2013.89733      4338.64155        22.35941
     2013.90006      4337.95715        22.16620
     2013.90280      4337.71975        21.99508
     2013.90554      4340.78735        21.90400
     2013.90828      4336.53796        21.84603
     2013.91102      4340.11456        26.36981
     2013.91375      4335.82916        25.86471
     2013.91649      4342.32276        24.67788
     2013.91923      4344.40236        22.00060
     2013.92197      4336.11696        25.38446
     2013.92470      4334.80056        22.76790
     2013.92744      4327.41816        23.54624
     2013.93018      4334.32976        22.90315
     2013.93292      4339.14736        23.66493
     2013.93566      4339.05596        30.66173
     2013.93839      4338.14456        23.17639
     2013.94113      4326.62016        23.96302
     2013.94387      4323.11977        22.30145
     2013.95482      4331.49317        23.90505
     2013.96851      4338.06817        23.37788
     2013.97125      4335.23577        22.39805
     2013.97399      4333.30537        22.23797
     2013.97672      4326.33798        22.07512
     2013.97946      4333.69358        21.98128
     2013.98220      4330.15918        25.77915
     2013.98494      4329.94978        22.16620
     2013.98767      4324.43238        22.22969
     2013.99041      4322.81598        22.49189
     2013.99315      4323.49858        22.98595
     2013.99589      4324.49618        23.03011
     2013.99863      4319.67178        23.30888
     2014.00410      4321.37498        27.84093
     2014.00684      4321.99258        24.62544
     2014.00958      4328.11218        22.93351
     2014.01232      4324.31279        23.12947
     2014.01505      4325.68939        22.44221
     2014.01779      4312.16499        25.15813
     2014.02053      4322.55321        24.43775
     2014.02327      4328.18319        25.87851
     2014.02600      4320.65679        23.81121
     2014.02874      4323.16939        23.17363
     2014.03148      4317.49799        25.22989
     2014.03422      4320.63921        24.90420
     2014.03696      4316.13819        30.57065
     2014.03969      4318.26479        23.67873
     2014.04243      4318.72439        22.91971
     2014.04517      4322.59999        23.75049
     2014.04791      4319.32760        22.79826
     2014.05065      4322.70520        22.33181
     2014.05338      4322.46680        22.69062
     2014.05612      4322.89740        27.92925
     2014.05886      4323.34800        25.35410
     2014.06160      4319.96160        23.26472
     2014.06433      4327.73620        24.50399
     2014.06707      4328.84880        26.88318
     2014.06981      4320.36440        23.33372
     2014.07255      4310.61700        22.21589
     2014.07529      4317.25060        24.28595
     2014.07802      4322.25920        23.79189
     2014.08076      4324.30080        22.57470
     2014.08350      4329.53740        22.24349
     2014.08624      4323.07800        23.17639
     2014.08898      4319.48160        22.94179
     2014.09171      4325.57020        26.54093
     2014.09445      4321.70580        24.09274
     2014.09719      4330.02240        23.62905
     2014.09993      4330.15963        32.00589
     2014.10266      4324.35760        25.66875
     2014.10540      4326.51720        28.74348
     2014.10814      4328.61480        27.34963
     2014.11088      4324.81340        29.77299
     2014.11362      4327.46100        26.73138
     2014.11636      4333.00223        29.21821
     2014.11909      4332.81821        23.79741
     2014.12183      4323.69081        22.56090
     2014.12457      4329.04341        24.31355
     2014.12731      4331.86201        27.27235
     2014.13004      4319.07661        22.77894
     2014.13278      4329.07621        27.52076
     2014.13552      4319.75881        34.52584
     2014.13826      4320.74841        32.92224
     2014.14099      4326.82501        28.88700
     2014.14373      4326.85461        28.62203
     2014.14647      4320.55721        32.70695
     2014.14921      4328.48481        24.69996
     2014.15195      4324.96842        24.42395
     2014.15468      4321.15302        24.66408
     2014.15742      4320.76462        31.83201
     2014.16016      4319.65522        26.46089
     2014.16290      4315.75382        26.46365
     2014.16564      4316.88304        26.04688
     2014.16837      4321.28702        31.93689
     2014.17111      4322.05262        32.43922
     2014.17385      4318.01822        34.55896
     2014.17660      4326.48707        28.39295
     2014.17932      4317.64842        27.77469
     2014.18206      4324.75402        26.73138
     2014.18480      4322.40862        26.40569
     2014.18754      4319.66523        27.86301
     2014.19028      4318.91383        26.62097
     2014.19301      4322.18643        27.18403
     2014.19575      4324.03503        27.79953
     2014.19849      4319.78463        26.69826
     2014.20123      4319.31523        24.68064
     2014.20397      4317.36583        23.04115
     2014.20670      4308.83343        23.78085
     2014.22890      4317.73542       113.06393
     2014.23255      4315.83685        61.59671
     2014.23408      4308.56844        25.48658
     2014.23682      4309.47904        22.14688
     2014.23956      4307.73064        23.03839
     2014.24230      4301.64124        21.00145
     2014.24503      4300.68184        22.19933
     2014.24777      4311.42544        24.05134
     2014.25051      4308.43604        22.77342
     2014.25325      4301.59464        23.29784
     2014.25598      4308.64024        22.13860
     2014.25872      4311.16384        25.00357
     2014.39561      4301.79488        21.18362
     2014.39835      4298.24348        21.08149
     2014.40109      4301.97308        21.14221
     2014.40383      4299.25168        20.56536
     2014.40657      4303.78928        20.76684
     2014.40930      4302.69388        22.42841
     2014.41204      4297.63248        20.14583
     2014.41752      4302.77368        20.20379
     2014.42026      4300.42328        20.18171
     2014.42299      4303.81288        20.70612
     2014.42573      4296.86948        20.46047
     2014.42847      4302.34508        20.28935
     2014.43121      4303.10968        20.70888
     2014.43394      4302.24628        23.42480
     2014.43668      4294.68988        21.04285
     2014.43942      4295.05248        20.49084
     2014.44216      4292.23208        21.61143
     2014.44490      4291.52668        20.84965
     2014.44763      4299.87028        20.97661
     2014.45037      4295.61688        21.34094
     2014.45311      4290.27848        20.09338
     2014.45585      4291.88208        20.71992
     2014.45859      4291.07369        20.61504
     2014.46132      4292.33629        21.46238
     2014.46406      4297.05089        21.47066
     2014.46680      4286.92049        21.45134
     2014.46954      4295.91209        20.83585
     2014.47227      4298.71069        20.42183
     2014.47775      4295.70689        20.90761
     2014.48049      4291.41449        20.13203
     2014.48323      4297.85509        20.03266
     2014.48596      4298.45169        20.25623
     2014.48870      4295.42529        21.17534
     2014.49144      4292.19589        20.04922
     2014.49418      4294.10449        20.49084
     2014.49692      4292.42609        19.81738
     2014.49965      4296.09470        19.78978
