# ================= DQRFIT RESULTS ================
# INPUT FILE: series/SNRS.rad
# OUTPUT: LDETRENDED
# FILTER FUNCTION: f(t)
# f(t)=+line(t)+annual(t)+jumps(t)
# line(t)=+P 1+P 2*t
# annual(t)=+P 3*sin(2*pi*t+P 4)
# jumps(t)=+P 5*heav(t-2011.7947  )
# heav(t)=(t<0?0:1)
# TOTAL OBSERVATIONS MTOT= 2387
# INITIAL TIME INTERVAL= 2021.0650 - 2007.7207 = 13.3443
# TOTAL OBSERVATIONS AFTER PREFILTER M= 2264
# TIME-SPAN= 2021.0650 - 2007.7207 = 13.3443
# OBSERVATIONS: USED M=  2264 REJECTED MTOT-M=   123 %USED=   94.8471
# N=  5 PARAMETERS
# MAXSIG= 175.00000
# MAXRES=  91.64885
# SCALE FACTOR FOR LENGTHS: SCL=  10.00000
# SCALE FACTOR FOR SIGMAS: SCLSIG=   1.00000
# CHI^2=  11467.251 DOF=  2259 CHI^2/DOF=   5.07625
# RMS=     16.158 SDEV=     16.155 MEAN=   -0.44691
#  P #       PARAMETER +-    SIGMA %error PARAMETER NAME
# P 1 =      3479.72267 +-  319.839   9.19 YZERO                              
# P 2 =        -1.75226 +-    0.159   9.09 SLOPE                              
# P 3 =         9.29901 +-    0.448   4.82 ANNUAL AMPLITUDE                   
# P 4 =        -1.90854 +-    0.025   1.31 ANNUAL PHASE                       
# P 5 =        46.24233 +-    1.282   2.77 OFFSET 2011.7947                   
#       T            LDETRENDED       SIG_OBS
     2007.72074        21.86217        13.01138
     2007.72348        16.06397        13.18712
     2007.72622        13.93376        13.06321
     2007.72896        21.49256        13.33357
     2007.73170        17.74836        13.28175
     2007.73443         9.88016        13.07222
     2007.73717        13.48295        13.65576
     2007.73991         7.62275        13.43947
     2007.74265         8.87555        13.45749
     2007.74538       -14.20065        14.40603
     2007.74812        11.16614        14.13341
     2007.75086         5.18094        14.41954
     2007.75634        22.47854        13.56564
     2007.75907         6.10633        13.87430
     2007.76181         0.59713        15.80067
     2007.76455         3.35693        13.49354
     2007.76729        -6.08927        14.21226
     2007.77003        -1.39948        15.08194
     2007.77276        -1.26068        14.16495
     2007.77550        14.67912        13.25021
     2007.77824        13.65792        13.61295
     2007.78098        17.83971        13.22317
     2007.78371        18.46551        13.41468
     2007.78645         7.07331        13.37187
     2007.78919         8.07311        13.29978
     2007.79193         7.36990        13.17135
     2007.79467       -22.25230        13.58141
     2007.79740        -6.16950        13.33582
     2007.80014         1.29030        13.33582
     2007.80836        13.30569        13.40116
     2007.81109         1.38349        13.46200
     2007.81383        12.39328        13.41018
     2007.81657         8.87508        13.83600
     2007.81931         8.55688        13.48678
     2007.82204         2.91568        13.52959
     2007.82478       -17.38453        13.48453
     2007.82752         6.19927        13.30879
     2007.82988        15.50741        15.53706
     2007.83300         3.81586        13.04067
     2007.83573         9.01466        13.04969
     2007.83847         2.17746        13.16234
     2007.84121         2.13526        13.46200
     2007.84395         5.41905        13.38764
     2007.84669         5.65685        13.46425
     2007.84942         8.15265        13.28851
     2007.85216       -11.83355        13.79545
     2007.85490        -3.30576        14.13341
     2007.85764       -29.70096        14.80932
     2007.86037        -6.01616        13.29076
     2007.86311       -28.04136        13.82248
     2007.86585         6.57143        13.23894
     2007.86859         7.07423        13.22542
     2007.87133       -14.62597        13.67378
     2007.87406       -10.71017        14.92873
     2007.87680        -1.05338        13.84727
     2007.87954        -4.49758        13.07898
     2007.88228       -26.94578        13.31104
     2007.88502       -24.50198        13.95767
     2007.89049       -35.57539        14.34970
     2007.89323         5.33941        13.58591
     2007.89597         2.78021        13.57014
     2007.90144         2.71580        13.30653
     2007.90418        16.05460        13.38764
     2007.90692        -4.23460        13.06546
     2007.90966        -7.54681        13.10376
     2007.91239        -5.75101        13.19614
     2007.91513       -15.02621        13.41243
     2007.91770       -39.99571        14.43982
     2007.92061       -46.34462        14.80932
     2007.92334       -39.23882        13.87430
     2007.92608         3.30398        13.40567
     2007.92882         5.27878        13.43271
     2007.93430         1.56737        13.31329
     2007.93703        -3.23183        13.57014
     2007.93977        -4.98604        13.25246
     2007.94251        -0.24624        13.32231
     2007.94525         8.59556        13.56113
     2007.94799         3.08236        13.27499
     2007.95072         4.96215        13.36511
     2007.95346        11.64695        13.60619
     2007.95620         0.38075        13.46650
     2007.95894        -2.10845        13.59493
     2007.96167       -12.62566        13.64900
     2007.96441         3.36714        13.71434
     2007.96657        -8.53209        18.31282
     2007.96989       -41.22626        13.85628
     2007.97263       -45.37947        13.77968
     2007.97536       -25.54867        13.78193
     2007.97810       -34.79387        14.29563
     2007.98084       -15.94407        13.36962
     2007.98358       -20.71028        13.53184
     2007.98632       -17.84948        13.82474
     2007.98905       -33.11868        13.93288
     2007.99179       -27.52788        13.90359
     2008.00000       -52.59249        13.92387
     2008.00274       -53.28769        13.69857
     2008.00548       -24.28890        13.22993
     2008.00822       -23.09410        13.19839
     2008.01096       -11.80530        12.89423
     2008.01369        -5.88750        12.76130
     2008.01643       -19.13571        13.07447
     2008.01917       -27.01491        13.39215
     2008.02191       -19.37611        13.45073
     2008.02465       -13.22731        13.26147
     2008.02738       -16.43752        13.05194
     2008.03012         0.41328        13.36737
     2008.03286        -6.87692        13.22993
     2008.03560        -2.00212        13.25471
     2008.03858         1.09111        15.15629
     2008.04106        -9.21555        13.67378
     2008.04380       -13.27275        13.49354
     2008.04654         9.87005        14.14242
     2008.04928        -8.23915        13.49804
     2008.05201        -5.16036        13.05870
     2008.05475        -0.35056        13.33357
     2008.05749       -11.67376        13.85403
     2008.06023         4.11104        13.59267
     2008.06297         4.50883        13.19839
     2008.06570         1.07963        13.02716
     2008.06844        -5.65757        13.04743
     2008.07118        -6.05477        13.28400
     2008.07392         0.24602        13.43496
     2008.07666        -0.15818        13.79995
     2008.07939         2.46162        14.06131
     2008.08213        -4.36259        13.35836
     2008.08487        -6.20279        13.35610
     2008.08761         0.31201        13.50255
     2008.09034         9.18181        13.59493
     2008.09308        12.75160        13.39891
     2008.09582        11.80240        13.81573
     2008.09856         2.01520        13.61070
     2008.10130        -3.68600        13.61971
     2008.10403         8.60779        13.65576
     2008.10677        32.82759        13.67829
     2008.10951        27.11339        13.46425
     2008.11225        12.26719        13.38539
     2008.11498       -16.42502        13.33808
     2008.11772        -5.25122        13.55662
     2008.12046        -5.77442        13.51832
     2008.12320       -12.35262        13.91937
     2008.12594        13.48617        13.93288
     2008.12867        21.98197        13.50931
     2008.13141        40.59077        13.43721
     2008.13963        32.68316        13.40792
     2008.14236        46.64496        13.73011
     2008.14510        41.70676        13.48903
     2008.14784        31.86255        13.94190
     2008.15058        27.26635        13.44172
     2008.15331        24.24315        13.67153
     2008.15605        36.26595        13.78418
     2008.15879        32.44274        13.61971
     2008.16153       -13.46646        13.98020
     2008.16427        -5.12066        13.61746
     2008.16700        -0.03886        13.43496
     2008.16974       -12.46807        13.47326
     2008.17248       -17.02827        13.46650
     2008.17522       -15.06647        13.82699
     2008.17796        -3.24767        13.45524
     2008.18069        -9.21988        13.55212
     2008.18343       -11.47308        13.58591
     2008.18617        -1.24028        13.63097
     2008.18891       -21.65449        13.66928
     2008.19164        -0.98569        13.44622
     2008.19438         1.45811        13.54536
     2008.19712        -4.80509        13.02040
     2008.19986         7.19870        13.28626
     2008.20260        -2.34450        13.22092
     2008.20533        23.62130        13.35385
     2008.20807         0.40210        13.78418
     2008.21081        30.96789        13.74813
     2008.21355        44.21369        13.45749
     2008.21629        49.83049        13.13981
     2008.21902        31.28129        13.23669
     2008.22176        27.61308        13.30879
     2008.22450        30.59088        13.36511
     2008.22724        32.07768        13.45298
     2008.22997        27.99248        13.49579
     2008.23271        33.24427        13.56338
     2008.23545        34.45107        13.53409
     2008.23819        37.35287        13.30653
     2008.24093        46.72067        13.10827
     2008.24366        47.49646        13.02040
     2008.24640        53.29726        13.03842
     2008.24914        54.88306        13.10376
     2008.25188        47.88986        13.41243
     2008.25735        58.72845        13.40792
     2008.26009        56.10525        13.19163
     2008.26283        55.85905        13.00012
     2008.27926        67.25083        13.79995
     2008.29295        57.73082        13.30428
     2008.32580        59.09539        14.06131
     2008.32854        65.10218        13.17360
     2008.33745        78.51880        19.44385
     2008.34018        88.84458        18.56742
     2008.34565        88.51718        18.47729
     2008.34839        94.22597        18.53362
     2008.35661        71.74137        18.35563
     2008.36206        66.79793        19.03605
     2008.36482        51.20977        18.49532
     2008.38670        -9.66390        19.00451
     2008.38944        -2.82510        18.63501
     2008.39218       -10.14030        19.51595
     2008.39492         3.51050        18.73639
     2008.39765        -0.97871        19.23432
     2008.40039         2.87509        19.01352
     2008.40313         1.29689        18.88059
     2008.40587         1.07169        19.57453
     2008.40861         4.35848        19.44385
     2008.41134         2.35128        19.69169
     2008.41408        -2.59492        18.93466
     2008.41684        -1.96508        18.39393
     2008.41958         1.03272        18.70485
     2008.42162       -14.34470        13.42369
     2008.42436        -6.92991        13.18487
     2008.42710        -6.30111        13.27274
     2008.42984        -2.34331        13.53860
     2008.43258        -0.44251        13.61070
     2008.43531        -0.78872        13.45974
     2008.43805         3.50308        13.60844
     2008.44079        -9.27012        13.32907
     2008.44353       -12.83332        13.58591
     2008.44626        -2.67953        13.29527
     2008.44900        -8.40973        13.40792
     2008.45174        -6.26693        13.72786
     2008.45448         1.64587        13.57465
     2008.45722         4.14466        13.28400
     2008.45995        -5.75554        13.20289
     2008.46269       -12.33174        13.26823
     2008.46543        -5.67694        13.32231
     2008.46817       -15.27215        13.48678
     2008.47091       -18.77135        13.46425
     2008.47364        -2.73955        13.35385
     2008.47638         2.49825        13.22768
     2008.47912       -10.99396        13.52283
     2008.48186        -2.24516        13.27950
     2008.48459         3.46464        13.73912
     2008.48733         0.90144        13.26823
     2008.49007        -4.12277        13.24796
     2008.49281         2.27303        13.18712
     2008.49555         0.40883        13.87205
     2008.49828         2.27863        13.52959
     2008.50102        16.60442        13.87430
     2008.50376         7.53722        13.84952
     2008.50650        18.66202        13.69406
     2008.50924        10.00381        13.58817
     2008.51197         8.78261        13.47326
     2008.51471         2.27341        13.18036
     2008.51745         6.05821        13.16234
     2008.52019         5.87500        13.39215
     2008.52292         7.02780        13.92387
     2008.52566        13.77860        13.58817
     2008.52840        11.97240        13.35836
     2008.53114        11.31719        13.24345
     2008.53388         7.34399        13.21867
     2008.53661         7.49379        13.19388
     2008.53935         9.86659        13.21191
     2008.54209        11.47938        13.18262
     2008.54483        11.35018        13.61295
     2008.54757         9.19498        13.37413
     2008.55030        13.88978        13.14432
     2008.55304        18.46857        13.34709
     2008.55578        12.29337        13.34484
     2008.55852        13.65917        13.25471
     2008.56125        10.80597        13.27499
     2008.56399        11.62076        13.62196
     2008.56673         6.99756        13.36511
     2008.56947         7.97536        13.03392
     2008.57221        24.35816        13.80897
     2008.57494         3.31495        13.99822
     2008.57768         9.02475        14.03202
     2008.58042        -3.12845        13.44622
     2008.58316        18.57135        13.58141
     2008.58590        21.21814        13.07898
     2008.58863        15.63694        13.77066
     2008.59137        14.57174        13.21641
     2008.59411        15.52554        13.02716
     2008.59685        21.37833        13.33357
     2008.59958        21.97613        13.77292
     2008.60232        12.27493        14.13791
     2008.60506         9.92573        13.46200
     2008.60780         9.93452        13.60394
     2008.61054         8.98532        13.31329
     2008.61327        23.23612        13.47101
     2008.61601        14.91692        13.43947
     2008.61875        18.87771        13.30428
     2008.62149        23.57851        13.67153
     2008.62423        11.28931        13.49804
     2008.62696        10.51510        13.46875
     2008.62970        18.93990        13.41468
     2008.63244        13.37270        13.72335
     2008.63518        -1.44050        13.82474
     2008.63791         8.84829        14.00723
     2008.64065        20.05209        13.42369
     2008.64326        22.68066        13.89008
     2008.64614         5.96970        13.61070
     2008.64888        15.59150        13.54085
     2008.65161       -20.94170        13.91035
     2008.65435        11.72910        13.61070
     2008.65709         5.59089        14.18748
     2008.65983        20.57769        13.41018
     2008.66256        18.19149        13.35610
     2008.66530        11.85329        13.20740
     2008.66804        11.62108        13.29752
     2008.67078        13.35588        13.18712
     2008.67352        11.75368        13.35836
     2008.67625        15.91948        14.15594
     2008.67899        12.70727        13.36286
     2008.68173        15.69207        13.26823
     2008.68447        13.08487        13.26373
     2008.68721        15.59667        13.12854
     2008.68994        15.94546        13.29076
     2008.69268         9.84126        13.40342
     2008.69542        15.14406        13.23669
     2008.69816        20.55585        13.32231
     2008.70089        20.95565        13.19388
     2008.70363        17.46745        13.05645
     2008.70637        21.82925        13.21191
     2008.70911        16.12204        13.52959
     2008.71185        13.86284        13.60168
     2008.71458        16.49264        13.01814
     2008.71732        17.44944        13.11953
     2008.72006        14.24723        13.32231
     2008.72280        12.23503        13.54085
     2008.72554       -15.50217        13.91261
     2008.72827        17.76763        13.12854
     2008.73101         9.39242        13.48678
     2008.73375        14.13322        13.84051
     2008.73649        13.79802        13.05194
     2008.73922         7.09282        13.32231
     2008.74470        12.41141        13.04067
     2008.74744        16.33321        12.93929
     2008.74994        23.58059        14.00048
     2008.75291        19.33280        13.58141
     2008.75565        16.60660        13.50480
     2008.75839         6.93940        13.30203
     2008.76113        19.47020        13.28851
     2008.76387         5.19299        13.28626
     2008.76660        -9.25021        13.74137
     2008.76934         7.77759        13.57014
     2008.77482        12.02818        13.11277
     2008.78029        14.27978        13.34709
     2008.78303        15.45158        13.35610
     2008.78577         7.06037        13.18036
     2008.78851        11.38117        13.32005
     2008.79124        24.54797        13.89909
     2008.79398         4.28077        13.50255
     2008.79672         5.02456        13.51156
     2008.79946        10.65136        13.26823
     2008.80220         6.39316        13.41018
     2008.80493        11.77695        13.43496
     2008.80767        15.05775        13.45749
     2008.81041         9.12655        13.36286
     2008.81315        13.38835        13.35385
     2008.81588        12.79714        13.36737
     2008.81862        11.54594        13.26147
     2008.82136        12.58374        13.22317
     2008.82410         4.90454        13.70533
     2008.82684        17.43733        13.53409
     2008.82957        -2.20387        13.17811
     2008.83231       -19.12207        13.42820
     2008.83505        20.29273        13.70983
     2008.83779       -17.46748        13.53184
     2008.84052         4.29632        13.48453
     2008.84326       -11.17788        13.25246
     2008.84600        18.15292        13.12629
     2008.84874       -21.87029        14.61556
     2008.85148        -1.92149        14.28211
     2008.85421       -19.02369        13.99372
     2008.85695        10.83811        13.34033
     2008.85969        11.76490        13.34484
     2008.86243         8.75570        13.66477
     2008.86517        -9.99450        13.57690
     2008.87064       -15.48091        14.65161
     2008.87338       -10.30611        13.89909
     2008.87612        12.01269        13.55212
     2008.87885        -1.69351        13.25922
     2008.88159        -1.61972        13.43045
     2008.88433         7.13808        13.38089
     2008.88707         3.68488        13.58141
     2008.88981       -10.30132        13.61070
     2008.89254        -0.71253        13.17811
     2008.89528         3.86727        13.49129
     2008.89802        13.43107        13.45749
     2008.90076         1.49087        13.46425
     2008.90350         3.62266        13.24796
     2008.90623         2.15746        13.38314
     2008.90897        11.31326        13.28626
     2008.91171         2.47905        13.65351
     2008.91445        11.63185        13.73236
     2008.91718        16.10765        13.61070
     2008.91992        -5.38655        13.82248
     2008.92266        11.90224        13.45298
     2008.92540        11.09204        13.58366
     2008.92814        15.00284        13.33132
     2008.93087         5.26064        13.61070
     2008.93361         0.04843        13.66252
     2008.93635        -5.53177        13.55662
     2008.93909       -18.25797        13.50030
     2008.94456         0.33862        13.67153
     2008.94730         5.11042        13.36061
     2008.95004         8.26322        13.10151
     2008.95263        -4.94624        13.95767
     2008.95551        -6.59219        13.21416
     2008.95825       -18.62339        13.23894
     2008.96096       -30.72664        13.85853
     2008.96373       -23.62479        12.95956
     2008.96629       -18.88230        15.03012
     2008.96920       -27.28820        13.25697
     2008.97194       -41.52740        13.45298
     2008.97434       -42.78120        15.43116
     2008.97742       -50.28081        13.17586
     2008.98016       -42.37701        13.16009
     2008.98289       -58.24221        13.67829
     2009.02122       -32.27205        13.64675
     2009.02396       -10.10925        13.36962
     2009.02670        -8.51645        13.09475
     2009.02944       -24.32166        14.72145
     2009.03217       -13.42486        13.23444
     2009.03491       -12.26206        13.12629
     2009.03765       -12.52326        13.16910
     2009.04039       -13.96447        13.27274
     2009.04313       -12.20267        13.12629
     2009.04586       -11.62887        13.15333
     2009.04860       -12.56207        13.60844
     2009.05134        -9.89028        13.23894
     2009.05408       -12.94748        13.20064
     2009.05682       -12.32668        13.00463
     2009.05955        -9.06988        12.98660
     2009.06229        -9.15109        12.99336
     2009.06503        -9.06029        13.00913
     2009.06777       -11.80849        12.86719
     2009.07050       -21.15069        13.02716
     2009.07324       -12.63490        12.98660
     2009.07598       -10.55810        12.94379
     2009.07872        -7.35630        13.09700
     2009.08146       -14.90350        13.00688
     2009.08419       -13.81471        12.97984
     2009.08693        -7.26091        13.04743
     2009.08967       -13.52411        13.07447
     2009.09241        -8.95831        13.18938
     2009.09515       -20.71152        12.81988
     2009.09788         0.70028        13.18712
     2009.10062        -8.54292        12.92126
     2009.10336        -6.19812        12.99787
     2009.10610        -3.54833        13.01138
     2009.10883        -4.00253        12.77932
     2009.11157        -5.31873        12.69596
     2009.11431       -16.52593        13.24120
     2009.11705       -19.73114        13.05645
     2009.11979        -7.65134        12.72975
     2009.12252       -15.65854        12.94154
     2009.12526       -19.27675        12.76580
     2009.12800       -11.87395        13.13530
     2009.13074       -23.96615        13.35836
     2009.13347       -25.45635        13.00913
     2009.13621       -34.26156        13.19163
     2009.13895       -12.72076        13.11277
     2009.14169        -7.75396        13.15783
     2009.14443       -11.15116        13.08574
     2009.14716       -30.95737        13.27499
     2009.14990       -30.14857        13.26598
     2009.15264       -36.20677        13.08123
     2009.15538       -27.08397        13.23218
     2009.15812       -38.74618        13.99146
     2009.16359        -1.80658        14.00949
     2009.16633       -39.28378        14.04328
     2009.16907       -41.45199        15.34780
     2009.17180       -46.38319        13.71659
     2009.17454       -39.22039        13.37187
     2009.17728       -31.88259        13.67153
     2009.18002       -10.27180        13.01589
     2009.18276       -11.11800        13.02040
     2009.18549       -16.16020        12.84691
     2009.18823       -29.48040        13.13305
     2009.19097       -28.97161        13.19163
     2009.19371       -11.28581        12.90099
     2009.19645        -7.88901        12.98885
     2009.19918       -11.53721        13.26598
     2009.20192       -14.07142        13.08348
     2009.20466       -19.83562        12.99787
     2009.20740       -22.73282        12.89873
     2009.21013       -37.50202        13.15107
     2009.22109       -11.00783        13.17360
     2009.22382       -14.41604        12.91450
     2009.22656       -20.73724        13.05194
     2009.22930       -16.76244        13.00012
     2009.23204        -8.38265        12.97083
     2009.23478        -5.98785        13.12854
     2009.23751        -9.23505        13.19614
     2009.24025        -9.42925        13.02490
     2009.24299        -9.06146        12.95956
     2009.24573         8.55434        13.09925
     2009.24846        20.92714        13.19614
     2009.25120        23.17394        13.47551
     2009.25394         0.22573        13.52508
     2009.25668        -1.82047        13.18036
     2009.25942        40.09833        13.19614
     2009.26215        21.50113        13.17811
     2009.26489        -6.07808        13.26598
     2009.26763        -9.70028        13.10827
     2009.27037        -7.57248        13.25246
     2009.27311       -17.75168        13.33357
     2009.27653       -19.22668        18.62374
     2009.49597         4.81784        33.37899
     2009.49761        -0.42629        13.09024
     2009.50035         5.01250        12.93253
     2009.50308        -1.37970        13.12404
     2009.50582         4.45610        13.02941
     2009.50856         1.37290        13.30203
     2009.51130         8.41169        13.32005
     2009.51404        -0.43351        12.90774
     2009.51677         7.78829        12.88972
     2009.51951        -1.22191        13.10601
     2009.52225         0.52988        13.09925
     2009.52499         1.60168        13.01589
     2009.52773        -0.47452        13.20965
     2009.53046        -0.05272        12.92802
     2009.53320        -3.00293        13.05419
     2009.53594         4.68887        13.25246
     2009.53868         4.04167        13.14657
     2009.54141         9.57747        13.10151
     2009.54415         8.07326        12.97984
     2009.54689        -1.86594        13.02040
     2009.54963         4.32186        13.03166
     2009.55237         4.16865        12.93253
     2009.55510         9.64445        13.00237
     2009.55784         0.26025        13.23669
     2009.56058         6.06105        13.46425
     2009.56332         8.40684        13.36061
     2009.56606         3.75464        13.58591
     2009.56879         7.32744        13.18262
     2009.57153        28.60324        13.47551
     2009.57427         8.31403        13.44622
     2009.57701        11.32283        13.63548
     2009.57974         9.58563        13.48453
     2009.58248         4.58743        13.18938
     2009.58522        13.90122        13.26823
     2009.58796         6.58002        13.06321
     2009.59070         8.31682        13.35385
     2009.59343         7.49862        13.34484
     2009.59617         9.60641        13.00913
     2009.59891         4.77121        13.07672
     2009.60165         4.12801        13.17811
     2009.60439         7.86981        13.16009
     2009.60712        -8.16240        13.34484
     2009.60986       -11.22160        13.52508
     2009.61260         5.36720        13.58366
     2009.61534         1.81800        13.23218
     2009.61807        -4.42021        13.43045
     2009.62081         7.42859        13.45524
     2009.62355         8.32139        13.24796
     2009.62629         4.02119        13.20740
     2009.62903        -1.00902        13.43947
     2009.63176         8.04378        13.25922
     2009.63450        13.11558        13.21191
     2009.63724         1.91538        13.68730
     2009.63998        -6.98383        13.30203
     2009.64272         3.79697        13.09475
     2009.64545        14.32377        13.06546
     2009.64819         6.38057        13.38990
     2009.65093         1.89236        13.43947
     2009.65367         9.44116        13.41243
     2009.65640         4.44296        13.07447
     2009.65914        -4.62325        13.13080
     2009.66188         7.28655        13.30428
     2009.66462        10.21235        13.22317
     2009.66736        18.73815        13.70758
     2009.67009        11.91594        13.77066
     2009.67283         5.30574        13.87881
     2009.67557        -2.21046        13.43045
     2009.67831        -7.98566        13.76390
     2009.68105       -20.50387        14.83636
     2009.68378       -17.60007        13.89233
     2009.68652        12.15573        13.30879
     2009.68926         3.22253        13.55212
     2009.69200         5.20832        13.33582
     2009.69473         9.89512        13.25697
     2009.69747        12.74992        13.20289
     2009.70021        10.50572        13.32681
     2009.70295        12.60151        13.30653
     2009.70569         7.72831        13.28400
     2009.70842         2.14011        13.55212
     2009.71116         1.87891        13.59493
     2009.71390        10.44870        13.74363
     2009.71664        -8.76150        13.45524
     2009.71938         5.49030        13.45298
     2009.72211         2.54210        13.30879
     2009.72485         5.23389        13.53635
     2009.72759         9.31069        13.70307
     2009.73033         7.88249        13.32231
     2009.73306         7.92529        13.26373
     2009.73580         1.95808        13.74813
     2009.73854         6.84488        13.06771
     2009.74128         5.38368        13.29076
     2009.74402        -7.15352        14.22353
     2009.74675        12.06327        13.00688
     2009.74949        10.98907        13.39891
     2009.75223       -12.89913        13.35160
     2009.75497         5.81467        12.98210
     2009.75770         1.91546        13.33357
     2009.76044        10.60026        13.22317
     2009.76318        11.40406        13.11728
     2009.76592         9.47985        13.36511
     2009.76866        10.56465        13.51156
     2009.77139         6.51345        13.30653
     2009.77413         6.65825        13.26598
     2009.77687         8.12204        13.12854
     2009.77961        11.21084        12.99561
     2009.78235        13.28264        13.22317
     2009.79056         3.74803        14.16495
     2009.79330       -27.43617        14.52544
     2009.79603         4.17263        13.83826
     2009.79877        13.47942        13.56338
     2009.80151         6.96322        13.64675
     2009.80425         0.50802        14.01625
     2009.80699         1.45982        13.71434
     2009.80972        -6.55739        14.31590
     2009.81246        18.15541        13.72110
     2009.81520        14.18221        13.68730
     2009.81794        -9.96799        14.17396
     2009.82068         0.55180        13.31104
     2009.82341        -4.01940        13.21191
     2009.82615         1.96740        14.11313
     2009.82889        -2.11280        14.14918
     2009.83163         2.52899        13.92612
     2009.83436        -0.72221        13.48678
     2009.83710         6.13259        13.59493
     2009.83984         8.09039        13.49354
     2009.84258         9.24718        13.55437
     2009.84532       -11.27002        14.75975
     2009.84805       -15.30222        13.66026
     2009.85079       -18.07842        13.47326
     2009.85353       -26.70363        13.41243
     2009.85627       -23.71283        13.99146
     2009.85901       -40.40503        15.25543
     2009.86448       -11.64744        17.61212
     2009.86722       -46.57764        14.14016
     2009.86996       -48.91884        13.71434
     2009.87269       -56.45705        13.85853
     2009.87817       -19.17945        14.67864
     2009.88091       -55.56765        14.14016
     2009.89186       -55.14446        13.92387
     2009.89460       -38.78167        13.99597
     2009.89734       -47.87687        14.46460
     2009.90007        -9.82007        13.49354
     2009.90281       -31.20527        13.50255
     2009.90829       -23.71068        13.46875
     2009.91102       -28.59188        13.68279
     2009.91376       -41.24008        14.81833
     2009.91650       -34.73329        13.21416
     2009.91924       -19.64249        13.24345
     2009.92198         0.04531        13.12629
     2009.92471        -4.85989        13.20515
     2009.92745        -0.73710        13.11503
     2009.93019        -2.09130        13.01138
     2009.93293         2.24650        13.02490
     2009.93567         2.31530        12.94154
     2009.93840        -1.46391        13.43045
     2009.94114        -0.90811        13.19163
     2009.94388        -1.51831        13.32231
     2009.94662        -0.64051        13.30428
     2009.94935        -4.68672        12.99336
     2009.95209        -1.11992        12.93703
     2009.95483       -23.67212        13.25471
     2009.95757       -40.00232        13.74813
     2009.96304       -59.98873        14.27309
     2009.97400       -42.22554        14.32266
     2009.97673       -32.71774        13.45073
     2009.97947       -36.16795        13.33357
     2009.98221       -44.80815        13.43721
     2009.98495        -2.76135        12.95731
     2009.98768        -3.16955        12.89197
     2009.99042        -5.24176        13.15558
     2009.99316        -0.51096        13.02941
     2009.99590       -10.29916        13.01589
     2009.99864       -22.54536        13.32231
     2010.01233       -52.35738        20.71683
     2010.01506       -16.05058        17.34401
     2010.01780         2.63722        13.19839
     2010.02054       -12.05798        13.39440
     2010.02601        -5.13339        13.34484
     2010.02875       -53.16859        14.21902
     2010.03149       -59.85479        13.52508
     2010.03423       -34.20100        13.64675
     2010.03697       -32.87020        14.02751
     2010.03970       -33.31140        13.73011
     2010.04244       -22.42960        13.27049
     2010.04792       -12.40101        13.97794
     2010.05065        -4.06921        13.86079
     2010.05339         0.73859        13.75715
     2010.05613        -2.23262        13.28400
     2010.05887        -4.77582        13.21416
     2010.06161       -19.41302        13.04067
     2010.06434       -12.66422        13.01589
     2010.06708       -41.78843        13.70082
     2010.06982       -34.43663        13.71208
     2010.07256       -38.38383        13.68730
     2010.72260        24.40422        52.47813
     2010.72484        14.76614        19.47765
     2010.72758       -20.06906        19.55651
     2010.73032         1.31974        19.54749
     2010.73305        17.92953        18.65078
     2010.73579        -7.58467        19.92826
     2010.73853       -15.04187        19.49793
     2010.74127        12.64292        19.77731
     2010.74401         8.10672        18.77470
     2010.74674        -5.24548        18.96170
     2010.74948         7.26432        19.03830
     2010.75222         8.86811        18.73189
     2010.75496        14.75791        19.12167
     2010.75770         5.29171        19.56101
     2010.76043         7.98751        18.77470
     2010.76317         6.97630        18.35112
     2010.76591         1.01910        18.47279
     2010.76865        10.70190        19.27262
     2010.77138         4.60170        20.16934
     2010.77412        -8.07651        20.58165
     2010.77686        -4.63071        19.02929
     2010.77960        -5.05091        18.84003
     2010.78234         4.93489        19.45962
     2010.78507         3.71868        19.31543
     2010.78781         0.51748        19.34021
     2010.79055         8.89228        18.72062
     2010.79329         6.19808        18.64853
     2010.79603         0.63787        18.95945
     2010.79876         3.42367        19.06985
     2010.80150         8.04547        19.08336
     2010.80424         0.23727        19.62184
     2010.80698        -9.79094        19.22981
     2010.80971       -11.91814        19.68944
     2010.81245       -33.29534        19.48666
     2010.81519       -39.51954        19.90348
     2010.81793       -60.04775        20.10174
     2010.82614       -50.80835        23.00593
     2010.83436        33.48804        45.36524
     2010.83709        29.81184        25.27476
     2010.83983        10.76063        20.45097
     2010.84257        -1.02257        19.90122
     2010.84531        -9.01577        19.96431
     2010.84804        -8.96698        20.03415
     2010.85078        17.04482        20.14230
     2010.85352        23.24462        19.72548
     2010.85626        12.17742        19.21855
     2010.85900       -31.57379        20.44196
     2010.86173       -12.37899        19.69169
     2010.86447       -51.87219        22.18131
     2010.86721       -27.70439        23.40247
     2010.86995        16.70540        19.48666
     2010.87269        -3.39780        19.87419
     2010.87542        12.86800        20.20989
     2010.87816         3.21880        19.40780
     2010.88090        -0.62441        19.07435
     2010.88364         2.17039        19.43709
     2010.88637         6.11719        20.01613
     2010.88911       -10.55601        20.58165
     2010.89185       -39.86022        20.73260
     2010.89459       -41.55442        19.45287
     2010.89733       -44.12062        19.09238
     2010.90006       -57.40082        19.26586
     2010.90280       -68.05203        20.88806
     2010.90554       -58.51523        19.05633
     2010.90828       -72.46343        19.11491
     2010.91102       -55.05263        19.43709
     2010.94661       -11.68127        19.47540
     2010.94935       -45.67747        20.29776
     2010.95208       -20.18367        18.70260
     2010.95482        -8.62888        18.95945
     2010.95756       -30.36008        18.95043
     2010.96030       -13.55528        19.09012
     2010.96303       -35.28248        19.29515
     2010.96577       -25.47669        19.18475
     2010.96851       -46.23589        18.83328
     2010.97125       -30.83109        18.28578
     2010.97399       -34.08529        18.67331
     2010.97672       -30.78050        18.77470
     2010.97946       -41.05970        19.02028
     2010.98220       -61.58090        18.88735
     2010.98494       -38.48110        19.02479
     2010.98767       -35.73731        18.25424
     2010.99041       -41.35251        18.65303
     2010.99315       -53.41071        18.79723
     2010.99589       -66.30491        19.05858
     2010.99863       -91.28812        19.25910
     2011.00410       -23.45452        18.67331
     2011.00684         7.98628        18.76118
     2011.00958         2.77607        19.03154
     2011.01232       -22.96013        19.27037
     2011.01505       -46.01733        20.30903
     2011.01779       -53.93853        19.45962
     2011.02053        -7.78474        19.55425
     2011.02327       -30.21294        18.68232
     2011.02600       -29.60714        18.78371
     2011.02874       -26.64734        19.47990
     2011.51391        23.20080        47.77826
     2011.51639       -15.11685        24.00629
     2011.51882        -6.62960        19.24108
     2011.52156        12.50519        19.41231
     2011.52429        -4.31801        19.36049
     2011.52703        -2.46921        19.64212
     2011.52977        -2.96641        19.46188
     2011.53251        -2.00762        19.59481
     2011.53525        12.55218        19.63311
     2011.53798         9.09998        19.47765
     2011.54072        -6.84322        19.22305
     2011.54346         1.51157        19.23883
     2011.54620         0.20837        19.45737
     2011.54893        -5.10483        19.13068
     2011.55167         6.71197        19.21179
     2011.55441         2.70276        18.96846
     2011.55715         5.26156        19.11265
     2011.56262        -2.80284        19.25460
     2011.56536         1.03395        19.11265
     2011.56810         6.51175        18.96170
     2011.57084         6.79555        19.40105
     2011.57357        -0.91465        19.01577
     2011.57631        33.11014        18.98423
     2011.58179         0.60874        18.68457
     2011.58726        11.76633        19.40105
     2011.59000         4.04013        18.91664
     2011.59274        -5.80407        18.97071
     2011.59548        13.85772        19.02704
     2011.59822         3.81452        18.87608
     2011.60095         8.46932        19.14194
     2011.60365        15.20804        19.47314
     2011.79739        59.25954        13.09024
     2011.80013        59.71333        12.92352
     2011.80287        56.27413        12.97984
     2011.80561        52.30493        13.46200
     2011.80835        53.41373        13.13530
     2011.81108        48.27252        12.91450
     2011.81382        49.07232        13.16009
     2011.81656        52.54912        12.87620
     2011.81930        54.80792        12.66667
     2011.82203        52.68071        12.76355
     2011.82477        54.77451        13.04518
     2011.82751        57.87931        13.00012
     2011.83025        40.53310        12.83790
     2011.83299        48.89790        12.64639
     2011.83572        52.77270        13.04293
     2011.83846        31.53850        12.71623
     2011.84120        43.06029        12.59006
     2011.84394        51.02709        12.81537
     2011.84668        51.68189        12.75003
     2011.84941        48.10969        12.61485
     2011.85215        50.57948        12.61034
     2011.85489        52.53028        12.91450
     2011.85763        55.36108        12.97308
     2011.86036        55.92388        12.66667
     2011.86310        54.41767        12.78383
     2011.86584        51.28847        12.70046
     2011.86858        57.65827        12.82213
     2011.87132        51.03507        12.53824
     2011.87405        41.28486        12.78157
     2011.87679        29.50166        13.13080
     2011.87953        20.71046        12.88521
     2011.88227        21.29426        12.68695
     2011.88501        25.40305        12.87395
     2011.88774        42.73485        12.99787
     2011.89048        23.59565        12.88972
     2011.89322        28.42245        13.38314
     2011.89596        22.40724        13.06771
     2011.89869        23.50604        13.29752
     2011.90143        43.77684        13.07222
     2011.90417        30.46264        13.28400
     2011.90691        46.78743        12.70722
     2011.90965        48.38323        12.73877
     2011.91238        43.64703        12.97083
     2011.91512        44.65083        12.97759
     2011.91786        54.94862        13.37413
     2011.92060        45.68042        12.75003
     2011.92334        43.79722        12.97984
     2011.92607        41.13402        13.12404
     2011.92881        47.49981        13.06095
     2011.93155        50.21361        12.93027
     2011.93429        49.55441        13.05870
     2011.93702        53.22220        12.72299
     2011.93976        52.65000        12.64414
     2011.94250        41.94480        12.46615
     2011.94524        41.71760        12.36476
     2011.94798        47.76839        12.50895
     2011.95071        47.37019        12.68695
     2011.95345        43.22199        12.83565
     2011.95619        44.30779        12.87845
     2011.95893        48.08758        12.56077
     2011.96167        47.30238        12.97759
     2011.96440        50.93418        12.82889
     2011.96714        48.72998        12.64414
     2011.96988        41.98177        12.36701
     2011.97262        41.30357        12.50445
     2011.97535        50.05837        12.62386
     2011.97809        46.77917        12.46840
     2011.98083        32.37496        12.93703
     2011.98357        46.03376        12.68920
     2011.98631        35.48456        13.13530
     2011.98904        22.10736        13.23669
     2011.99178        32.27915        12.95055
     2011.99452        17.96695        12.91225
     2011.99726        16.40675        12.70272
     2012.00273        35.40534        12.99787
     2012.00547        55.50614        12.90324
     2012.00821        44.84994        13.28851
     2012.01095        36.44774        12.95506
     2012.01368        42.59153        12.47291
     2012.01642        48.74533        12.57429
     2012.01916        48.93513        12.56753
     2012.02190        41.20093        12.75679
     2012.02464        36.90572        12.62386
     2012.02737        41.27052        12.71623
     2012.03011        44.20132        12.56753
     2012.03251        38.28052        14.83411
     2012.68720        50.92370        13.08348
     2012.68993        56.75750        13.55212
     2012.69267        48.53830        13.59943
     2012.69541        46.32509        13.22317
     2012.69815        47.94989        13.19839
     2012.70089        44.67569        13.03842
     2012.70362        45.73049        13.09024
     2012.70636        42.53528        12.84015
     2012.70910        47.44208        12.84917
     2012.71184        49.29988        13.02490
     2012.71457        55.65168        12.99111
     2012.71730        51.52946        13.06996
     2012.72016        51.48246        13.64675
     2012.72279        49.60807        12.71173
     2012.72553        46.70287        12.91450
     2012.72826        49.85266        12.90324
     2012.73100        44.87246        13.28400
     2012.73374        47.72826        13.30653
     2012.73648        47.85406        13.11277
     2012.73921        54.16585        13.03617
     2012.74195        53.02365        13.26823
     2012.74469        46.04245        13.19388
     2012.74743        52.67325        12.94154
     2012.75017        45.48504        12.82438
     2012.75290        48.04184        12.92352
     2012.75564        45.46464        12.96182
     2012.75838        42.95844        12.79960
     2012.76112        49.70423        12.89197
     2012.76386        45.16403        12.75228
     2012.76659        52.37283        12.76355
     2012.76933        48.90463        12.62161
     2012.77207        48.06542        12.63512
     2012.77481        48.08622        12.63512
     2012.77754        49.31902        12.49093
     2012.78028        51.61382        12.75228
     2012.78302        64.13561        12.86043
     2012.78576        68.10441        13.37413
     2012.78850        62.33721        13.20965
     2012.79123        50.17601        13.41243
     2012.79397        47.04080        12.72975
     2012.79671        49.82560        12.94154
     2013.54962        39.51389        12.98435
     2013.55236        43.02069        12.98885
     2013.55509        36.60449        13.10601
     2013.55783        46.11329        13.16910
     2013.56057        35.42608        13.22092
     2013.56331        42.46788        13.20289
     2013.56605        42.99168        12.77707
     2013.56878        40.13548        13.36061
     2013.57152        40.67627        13.17360
     2013.57426        53.01807        13.05194
     2013.57700        48.73187        13.28626
     2013.57974        43.63167        13.15107
     2013.58247        45.68146        13.11503
     2013.58521        40.74726        13.11953
     2013.58795        44.75206        13.19388
     2013.58974        45.22420        23.25151
     2013.81075        53.90747        25.69608
     2013.81245        43.74345        13.06771
     2013.81519        36.50825        12.93929
     2013.81793        37.56804        12.86719
     2013.82067        39.18284        13.20064
     2013.82340        41.48064        13.08348
     2013.82614        44.56744        13.18938
     2013.82888        43.51123        12.98210
     2013.83162        52.70803        13.15783
     2013.83436        37.99283        13.83150
     2013.83709        35.33663        13.51156
     2013.83983        40.26142        13.14206
     2013.84257        40.35722        12.99561
     2013.84531        38.16502        13.26373
     2013.84804        39.00182        13.17360
     2013.85078        34.68761        13.29076
     2013.85352        36.18441        13.11953
     2013.85626        38.27421        12.97984
     2013.85900        27.92701        13.06321
     2013.86173        38.27380        13.15558
     2013.86447        37.74460        13.46200
     2013.86721        44.10540        13.16459
     2013.86995        35.80719        13.04293
     2013.87269        36.88899        13.04518
     2013.87542        43.79679        13.13756
     2013.87816        40.14559        12.91676
     2013.88090        48.60938        13.16234
     2013.88364        31.26318        13.84952
     2013.88637        25.81398        12.94154
     2013.88911        32.80778        12.89648
     2013.89185        27.30157        12.89197
     2013.89459        33.23837        12.81086
     2013.89733        37.86417        12.90774
     2013.90006        32.18697        13.18262
     2013.90280        32.25276        13.05194
     2013.90554        32.94356        12.88521
     2013.90828        41.87336        12.89648
     2013.91102        40.50516        13.01814
     2013.91375        33.89295        12.99336
     2013.91649        48.32875        13.24345
     2013.91923        50.71955        13.65351
     2013.92197        52.14635        13.59943
     2013.92470        51.13714        13.22993
     2013.92744        36.97894        13.12178
     2013.93018        34.67174        12.63738
     2013.93292        32.12854        12.60133
     2013.93566        37.43833        12.62837
     2013.93839        34.00013        12.66892
     2013.94113        35.34593        12.96858
     2013.94387        37.83473        12.65540
     2013.94661        40.53752        12.89197
     2013.94935        20.89032        12.90099
     2013.95208        38.52712        12.78383
     2013.95482        33.22792        12.80185
     2013.95756        33.88871        12.68920
     2013.96030        34.52751        13.07672
     2013.96303        27.50831        12.99336
     2013.96577        32.71611        12.95055
     2013.96851        39.09490        13.00012
     2013.97125        43.86070        13.31555
     2013.97399        40.39450        13.05645
     2013.97672        27.60429        13.21867
     2013.97946        34.14509        12.92802
     2013.98220        29.55889        12.85592
     2013.98494        33.29869        12.95055
     2013.98767        32.03448        13.10151
     2013.99041        30.42028        13.06095
     2013.99315        27.86608        12.99336
     2013.99589        30.35688        12.98885
     2013.99863        33.49667        13.19839
     2014.00410        40.80927        13.04743
     2014.00684        30.78107        13.27725
     2014.00958        34.40286        13.00688
     2014.01232        29.46366        13.35160
     2014.01505        35.64046        13.16685
     2014.01779        32.79426        13.06771
     2014.02053        35.35805        12.96407
     2014.02327        32.01585        13.46875
     2014.02600        30.60465        13.64449
     2014.02874        34.97545        13.44397
     2014.03148        38.24124        12.99111
     2014.03422        40.88604        13.25246
     2014.03696        37.72184        13.23669
     2014.03969        31.50964        13.09475
     2014.04243        29.45143        13.55888
     2014.04517        36.80223        13.48227
     2014.04791        34.93603        12.96858
     2014.05065        36.87383        12.96632
     2014.05338        28.54262        12.85592
     2014.05612        30.75042        13.16910
     2014.05886        30.80222        13.14432
     2014.06160        35.45902        12.84241
     2014.06433        37.95981        13.48903
     2014.06707        33.51761        13.47777
     2014.06981        34.29741        13.27499
     2014.07255        31.77621        13.10151
     2014.07529        31.46700        13.09024
     2014.07802        46.44280        13.50255
     2014.08076        40.85860        13.28400
     2014.08350        31.05739        13.51607
     2014.08624        29.52519        13.22542
     2014.08898        30.73599        13.79770
     2014.09171        26.04179        13.67829
     2014.09445        32.52358        13.12404
     2014.09719        29.27138        13.25471
     2014.09993        38.75818        13.14657
     2014.10266        29.67698        13.61971
     2014.10540        32.06177        13.24120
     2014.10814        22.13057        13.32907
     2014.11088        27.40437        14.01174
     2014.11362        35.00117        13.35610
     2014.11635        33.75996        13.42369
     2014.11909        20.37276        13.22542
     2014.12183        28.07056        13.52733
     2014.12457        19.49736        13.33808
     2014.12731        40.32015        13.27274
     2014.13004        20.29695        13.14206
     2014.13278        29.87675        14.01174
     2014.13552        29.97355        13.77066
     2014.13826        30.08734        13.35610
     2014.14099        38.39814        13.33357
     2014.14373        31.02894        12.93253
     2014.14647        29.34874        13.09700
     2014.14921        31.76153        13.23669
     2014.15195        41.77733        13.19839
     2014.15376        33.95951        23.48133
     2014.52574        29.65632        75.19792
     2014.53710        51.33123        20.96466
     2014.53975        53.82387        24.69797
     2014.54238        39.33548        29.81466
     2014.54501        17.84608        40.47160
     2014.56154        45.79205        31.09439
     2014.56417        65.00066        41.04838
     2014.58077        48.38775        26.33594
     2014.58341        56.16437        31.79059
     2014.58604        31.64798        67.32350
     2014.60000        65.65544        23.41824
     2014.60265        71.60308        28.51239
     2014.60528        61.17669        35.47884
     2014.60791        88.38730        57.57453
     2014.61923        75.11113        22.64319
     2014.62188        71.83477        23.61200
     2014.62452        71.99340        28.49212
     2014.62715        59.08302        35.01471
     2014.62979        60.27763       145.95056
     2014.64110        50.76346        23.15013
     2014.64375        53.21710        24.59659
     2014.64638        74.59972        32.74363
     2014.64902        46.61634        38.64888
     2014.66297        68.27479        25.21618
     2014.66562        70.68242        27.65398
     2014.66826        61.28005        34.94937
     2014.67090        21.23267        49.53338
     2014.68220        46.42848        22.55307
     2014.68484        58.54911        25.22519
     2014.68749        39.18675        28.10234
     2014.69404        37.80522        12.73651
     2014.69678        37.67802        13.14657
     2014.69952        44.40582        12.68920
     2014.70225        42.27762        12.76806
     2014.70499        49.89941        12.88747
     2014.70773        50.85521        12.94154
     2014.70936        63.74307        28.92020
     2014.71215        52.49096        27.20788
     2014.71464       -18.38569       274.72835
     2014.72595        86.50413        24.99763
     2014.72859        55.01276        27.40614
     2014.73123        38.57239        30.45453
     2014.73387        63.86202        44.66003
     2014.74856        46.18676        14.23479
     2014.75154        47.17297        13.50255
     2014.75427        49.61777        12.94830
     2014.75701        51.45656        13.41018
     2014.75975        48.82637        13.07672
     2014.76249        45.69616        12.91000
     2014.76522        40.60796        12.88521
     2014.76796        43.04175        12.91225
     2014.77070        47.54155        12.90549
     2014.77344        41.83535        12.89648
     2014.77618        51.27315        13.42595
     2014.77892        54.13995        12.77932
     2014.78165        50.73074        12.95956
     2014.78439        50.01954        13.19614
     2014.78713        57.13434        13.06996
     2014.78987        49.97213        12.83339
     2014.79260        52.10893        12.99336
     2014.79534        60.60473        13.32907
     2014.79808        58.06553        13.36511
     2014.80082        47.49732        13.18938
     2014.80355        58.99912        13.35160
     2014.80629        51.08692        13.46650
     2014.80903        50.77172        13.44622
     2014.81108        48.60431        17.51299
     2014.81383        21.82412        17.84869
     2014.81656        51.88392        17.97036
     2014.81930        39.80171        17.58734
     2014.82204        42.81551        18.03344
     2014.82478        56.53031        18.29930
     2014.82752        57.77311        17.85320
     2014.83025        50.20990        17.44765
     2014.83299        46.53670        17.60987
     2014.83573        38.78950        17.44539
     2014.83847        54.78730        17.69999
     2014.84120        62.07309        17.44314
     2014.84394        39.68189        17.60311
     2014.84668        26.81069        18.84229
     2014.84942        36.94349        18.58544
     2014.85216        42.52328        17.65943
     2014.85489        41.71508        18.49532
     2014.85982        43.56372        47.73094
     2014.86246        13.10634       278.91227
     2014.87371        47.57105        26.17147
     2014.87680        43.38146        17.79011
     2014.87905        51.09342        39.67402
     2014.88169        59.91604        71.77102
     2014.88501        47.72985        18.64177
     2014.88775        46.32465        19.13518
     2014.89285        43.02660        30.02419
     2014.89558        47.11438        29.38658
     2014.89870        48.30484        19.23207
     2014.90092        65.56574        43.62362
     2014.90357        26.11237        78.33417
     2014.91472        47.68992        29.41362
     2014.91746        48.19371        28.51014
     2014.92060        45.34422        17.69323
     2014.92280        58.18407        43.83992
     2014.92544        74.37469       223.44209
     2014.93390        28.47052        27.35207
     2014.93660        31.93225        28.57097
     2014.93933        40.57104        29.59386
     2014.94247        23.20254        19.21179
     2014.94467        13.11439        52.08159
     2014.95577        48.54484        27.39939
     2014.95847        42.16757        32.35610
     2014.96120        28.96336        34.09095
     2014.96435         7.58587        19.71197
     2014.96988         5.95757        20.12428
     2014.97262        17.98137        18.81976
     2014.97498        35.50351        25.16436
     2014.97765        29.95817        30.80600
     2014.98034        20.67490        33.26183
     2014.98307         6.05868        33.81608
     2014.98622        35.05219        19.09914
     2014.99685        39.86583        26.25709
     2014.99952        34.54150        31.03581
     2015.00221        27.82622        34.22839
     2015.00494        29.83301        35.27606
     2015.00809        27.99052        19.55876
     2015.01604        20.11045        27.04115
     2015.01873        24.87316        28.47184
     2015.02139        29.98882        32.35385
     2015.02408        17.53355        40.51892
     2015.02681         5.71233        42.34389
     2015.02996        33.74784        21.01874
     2015.03524        27.84310        25.82450
     2015.03791        39.62978        28.25780
     2015.04060        14.58648        33.64710
     2015.04325        20.56914        46.97166
     2015.04595       -22.13013        56.65754
     2015.04869        -4.02434        59.63157
     2015.05183        33.58917        21.85913
     2015.05446        35.31978        24.11669
     2015.05711        40.39542        28.38172
     2015.05979        41.68911        32.70307
     2015.06247        54.62280        40.24855
     2015.06513        44.40048        51.00012
     2015.06783        16.03320        69.38279
     2015.07056        16.44199       215.32434
     2015.07370        39.86549        23.86885
     2015.07634        35.34011        26.93751
     2015.07898        46.40275        30.54465
     2015.08166        28.69543        35.47658
     2015.08434        33.57613        39.48251
     2015.08701        68.66881       103.68328
     2015.09558        44.42482        24.55378
     2015.09821        61.21943        31.09665
     2015.10085        35.08207        31.09890
     2015.10353        29.29776        37.72513
     2015.10621        65.12245        47.94723
     2015.11773        40.41363        18.70485
     2015.12047        39.07643        18.79047
     2015.12320        34.81823        18.98648
     2015.12540        51.08508        45.84964
     2015.12808        42.88178        64.27737
     2015.13415        32.37742        19.06083
     2015.13689        34.43922        18.88059
     2015.13963        35.61401        18.86482
     2015.14237        39.15981        19.05182
     2015.14511        38.70561        19.02929
     2015.14784        40.79441        19.36950
     2015.15058        41.31220        19.02479
     2015.15332        47.19700        19.26586
     2015.15606        41.85880        19.72098
     2015.15880        29.60160        19.20503
     2015.16153        43.38339        19.72774
     2015.16427        42.05319        18.98198
     2015.16701        41.32499        18.68908
     2015.16975        45.77479        18.90312
     2015.17248        46.52558        19.19376
     2015.17522        44.35238        19.81786
     2015.17796        42.31418        19.59706
     2015.18070        48.25598        19.52722
     2015.18344        50.90077        19.86968
     2015.18617        52.73257        19.54524
     2015.18891        47.21037        20.10625
     2015.19165        46.75017        21.08858
     2015.19439        43.93096        18.80624
     2015.19713        40.41176        19.90573
     2015.19986        43.31556        20.35183
     2015.20260         2.54836        20.89257
     2015.20534        42.02315        20.06795
     2015.20808        48.91695        19.96206
     2015.21081        42.58575        19.45737
     2015.21355        35.21154        20.01162
     2015.21629        20.88934        19.68042
     2015.21903        35.72814        19.91024
     2015.22177        43.52894        19.67141
     2015.22450        40.20373        19.19376
     2015.22724        36.54653        19.32219
     2015.22998        54.41733        19.56777
     2015.23272        41.10113        19.43484
     2015.23546        32.72392        20.45097
     2015.23819        41.28172        19.19602
     2015.24093        47.35052        18.97747
     2015.24367        35.07132        19.35148
     2015.24709        30.12431        13.10376
     2015.24982        38.57510        12.65540
     2015.25256        40.49590        12.68695
     2015.25530        45.93770        12.81537
     2015.25804        39.89450        12.69145
     2015.26078        41.78729        12.67793
     2015.26351        30.17809        12.88521
     2015.26625        39.73689        12.80861
     2015.26899        32.14568        12.71398
     2015.27173        44.70048        13.01814
     2015.27446        33.37028        12.89197
     2015.27721        41.80409        12.59682
     2015.27994        30.67587        12.71398
     2015.28268        35.04667        12.62386
     2015.28542        38.10047        13.08348
     2015.28815        39.53827        13.19163
     2015.29089        39.67706        12.78383
     2015.29363        40.89386        12.84917
     2015.29637        40.00267        12.94830
     2015.29911        49.24746        12.78157
     2015.30184        47.94325        12.81537
     2015.30458        44.42205        12.76355
     2015.30732        34.01585        12.63287
     2015.31006        35.05365        12.54726
     2015.31279        42.40044        12.86944
     2015.31554        41.32526        12.64864
     2015.31827        43.07604        12.48192
     2015.32101        28.97084        12.78383
     2015.32375        37.75363        12.60809
     2015.32648        40.82843        12.71398
     2015.32922        52.29723        12.81537
     2015.33196        43.01703        12.51346
     2015.33471        46.21484        12.62386
     2015.33744        45.61562        12.42108
     2015.34017        32.20642        12.50219
     2015.34291        38.51822        12.53599
     2015.34565        45.13901        12.73426
     2015.34839        43.40581        12.56753
     2015.35112        46.34561        12.43010
     2015.35387        45.69342        12.52473
     2015.35660        45.87820        12.55627
     2015.35934        42.95800        12.89873
     2015.36208        37.78480        12.75904
     2015.36481        47.57859        12.58556
     2015.36755        57.13239        12.56303
     2015.37029        46.89719        12.58781
     2015.37304        41.38700        12.56528
     2015.37577        42.48078        12.52923
     2015.37850        46.19258        12.96858
     2015.38124        42.77138        12.54726
     2015.38398        46.89518        12.54726
     2015.38672        49.44397        12.62611
     2015.38945        46.69277        12.53824
     2015.39220        43.47259        12.51797
     2015.39493        43.24837        12.60584
     2015.39767        41.32816        12.69370
     2015.40041        45.71496        12.84691
     2015.40314        43.39176        12.98885
     2015.40588        39.04456        12.91676
     2015.40862        58.01035        12.92802
     2015.41137        45.23817        12.68469
     2015.41410        47.97295        12.75228
     2015.41683        57.88175        12.71623
     2015.41957        51.67254        12.69370
     2015.42231        53.11834        12.69370
     2015.42505        45.54914        13.09024
     2015.42778        48.49694        12.81312
     2015.43053        50.04875        12.68244
     2015.43326        60.03653        12.73877
     2015.43600        41.47533        12.71849
     2015.43874        49.16713        12.66667
     2015.44147        47.67092        13.27950
     2015.44421        42.55972        12.67568
     2015.44695        44.27452        12.42559
     2015.44970        46.18833        12.67793
     2015.45243        52.62411        12.87170
     2015.45516        53.42291        12.86268
     2015.45790        47.81371        12.84241
     2015.46064        52.99451        12.85367
     2015.46338        45.71730        13.11277
     2015.46611        47.33910        12.64864
     2015.46886        55.14991        12.79734
     2015.47159        55.79969        12.61034
     2015.47433        37.12149        13.31104
     2015.47707        53.89429        12.78157
     2015.47980        46.22009        12.85367
     2015.48254        56.43788        12.81086
     2015.48528        54.67868        12.88521
     2015.48803        60.89550        12.98435
     2015.49076        54.32128        13.26823
     2015.49349        53.14807        12.88521
     2015.49623        46.66487        13.10151
     2015.49897        50.46067        13.11052
     2015.50171        50.73247        12.65090
     2015.50444        60.20726        12.72975
     2015.50719        59.78708        12.69821
     2015.50992        63.24786        12.61710
     2015.51266        51.02866        12.77031
     2015.51540        56.39945        12.71398
     2015.51813        57.64425        12.81312
     2015.52087        59.23905        12.56753
     2015.52361        61.42085        12.97984
     2015.52636        66.07266        12.79960
     2015.52908        62.96844        12.84466
     2015.53182        54.88024        12.79509
     2015.53456        53.66904        12.93478
     2015.53730        50.44083        12.74778
     2015.54004        55.91363        12.80636
     2015.54277        53.78343        12.81988
     2015.54552        61.91524        12.64188
     2015.54825        53.57502        12.78157
     2015.55099        50.43582        12.65766
     2015.55373        49.94262        12.76806
     2015.55646        57.07742        12.53148
     2015.55920        55.01821        12.59232
     2015.56194        72.09901        12.84015
     2015.56469        61.50382        12.96858
     2015.56741        53.91261        12.91000
     2015.57015        52.33240        13.32681
     2015.57289        57.56220        13.16009
     2015.57563        58.60400        12.59457
     2015.57837        63.05179        12.72525
     2015.58110        52.78559        12.62837
     2015.58385        58.48141        12.84241
     2015.58658        65.00119        12.49318
     2015.58932        58.54798        13.54311
     2015.59206        57.99978        13.03842
     2015.59479        60.50158        13.29978
     2015.59753        61.19438        12.94154
     2015.60027        61.94017        13.18036
     2015.60302        73.97499        13.66477
     2015.60574        58.75277        13.02040
     2015.60848        71.44257        13.06546
     2015.61122        64.89836        12.92577
     2015.61396        61.78716        12.90324
     2015.61670        58.86396        12.89423
     2015.61943        75.93476        13.04293
     2015.62218        59.17457        12.77256
     2015.62491        65.87835        12.64864
     2015.62765        58.59215        12.74327
     2015.63039        61.18095        12.70046
     2015.63312        65.26374        12.95731
     2015.63586        63.85554        13.21416
     2015.63860        53.02534        12.76806
     2015.64135        64.56315        12.77031
     2015.64407        76.90293        12.86494
     2015.64681        57.09973        12.80410
     2015.64955        61.29753        12.67568
     2015.65229        65.02833        13.11277
     2015.65503        49.88112        12.99787
     2015.65776        56.63892        13.07672
     2015.66051        60.24773        12.83114
     2015.66324        77.47152        12.81762
     2015.66598        67.42931        13.01364
     2015.66872        64.53211        13.14206
     2015.67145        63.17791        12.92352
     2015.67419        47.04971        12.83565
     2015.67693        49.51450        12.70046
     2015.67968        56.04832        12.86944
     2015.68240        51.39610        12.59457
     2015.68514        45.90589        12.87620
     2015.68788        55.73669        12.83790
     2015.69062        63.87849        12.65766
     2015.69336        60.64929        13.05194
     2015.69609        57.73308        12.62161
     2015.69884        57.02689        12.62837
     2015.70157        54.21068        12.68920
     2015.70431        55.83448        12.68244
     2015.70705        58.53527        12.58556
     2015.70978        70.62107        12.56303
     2015.71252        65.24787        12.62161
     2015.71526        48.44567        12.59908
     2015.71801        72.52648        12.61935
     2015.72073        59.60826        12.56303
     2015.72347        53.20506        12.41433
     2015.72621        55.62586        12.93253
     2015.72895        39.51565        12.96632
     2015.73169        40.04245        12.78833
     2015.73442        50.90725        12.91225
     2015.73717        56.79906        12.49769
     2015.73990        58.29684        12.60358
     2015.74264        56.39464        12.91901
     2015.74538        61.36444        13.30653
     2015.74811        57.55224        13.25246
     2015.75085        51.94303        12.51797
     2015.75359        55.63183        12.57429
     2015.75634        49.14564        12.51797
     2015.75906        58.16443        12.42559
     2015.76180        50.53622        12.52473
     2015.76454        58.84902        12.53824
     2015.76728        62.36982        12.70722
     2015.77002        31.75162        13.49129
     2015.77275        57.65241        12.61710
     2015.77550        59.93622        13.10151
     2015.77823        55.82201        13.18938
     2015.78097        54.70181        12.46840
     2015.78371        58.08360        12.67343
     2015.78644        61.63540        12.61935
     2015.78918        62.76420        12.70272
     2015.79192        56.85399        12.74778
     2015.79466        65.83380        12.57880
     2015.79739        65.56859        12.38053
     2015.80013        56.82839        12.70046
     2015.80287        55.15418        12.43460
     2015.80561        47.83798        12.83114
     2015.80835        50.77878        12.47291
     2015.81108        51.57658        12.56753
     2015.81383        56.06738        12.57880
     2015.81656        50.56317        12.92352
     2015.81930        53.96797        12.75679
     2015.82203        59.06777        12.91676
     2015.82477        62.92956        13.44172
     2015.82751        62.97736        13.06996
     2015.83025        61.37316        12.95956
     2015.83299        37.73496        13.15107
     2015.83572        43.10175        12.92352
     2015.83846        42.01655        12.72074
     2015.84120        44.35835        12.49994
     2015.84394        45.34215        12.71849
     2015.84668        47.83994        12.91450
     2015.84941        51.30674        13.01138
     2015.85216        48.72755        12.89423
     2015.85489        51.06534        12.94605
     2015.85763        47.92913        12.88747
     2015.86036        46.88593        13.09024
     2015.86310        53.35773        13.11277
     2015.86584        45.06853        13.33132
     2015.86858        49.98732        12.99561
     2015.87132        45.30813        13.15783
     2015.87405        37.63992        13.04969
     2015.87679        53.77172        13.13530
     2015.87953        53.01951        13.07898
     2015.88227        43.05231        13.40567
     2015.88501        42.41111        12.75454
     2015.88774        44.68991        12.78157
     2015.89049        53.73271        13.09700
     2015.89322        46.79550        13.01814
     2015.89596        44.91030        13.04518
     2015.89869        42.27909        12.80861
     2015.90143        46.94089        12.70272
     2015.90417        45.07369        12.79734
     2015.90691        46.57149        12.72975
     2015.90965        50.93229        12.69370
     2015.91238        51.39308        12.95956
     2015.91512        48.20488        12.80185
     2015.91786        32.36268        13.06321
     2015.92060        41.11247        13.35160
     2015.92334        41.65627        13.04293
     2015.92607        27.12707        12.72074
     2015.92882        15.23588        13.29302
     2015.93155        26.46166        13.84727
     2015.93429        54.84946        13.84051
     2015.93702        24.64126        13.52283
     2015.93976        17.91606        13.76841
     2015.94250        30.05085        13.58817
     2015.94524        23.96265        13.48227
     2015.94798        16.92246        13.50706
     2015.95071        23.76925        13.09475
     2015.95345        27.30704        13.07222
     2015.95619        44.29284        13.03842
     2015.95893        36.06264        13.39215
     2015.96167         2.64044        13.90359
     2015.96715        12.53304        13.44848
     2015.96988         9.47983        13.61971
     2015.97262        27.83963        13.74813
     2015.97535        43.06542        13.53184
     2015.97809        51.08622        13.65125
     2015.98083        52.27502        14.48263
     2015.98357        42.67182        14.07032
     2015.98631        46.35362        13.60168
     2015.98904        54.51841        13.81122
     2015.99178        52.19821        13.43271
     2015.99452        50.66401        13.40342
     2015.99726        45.29880        13.18487
     2016.00000        47.57660        13.41243
     2016.00273        43.94640        13.36286
     2016.00548        33.29020        13.28626
     2016.00821        17.56499        13.75264
     2016.01095        45.32979        14.25282
     2016.01368        39.55959        13.77292
     2016.01574        51.89119        21.38599
     2016.01848        49.68499        21.47611
     2016.02122        50.96079        21.20123
     2016.02396        48.17259        20.47125
     2016.02669        40.18838        19.89221
     2016.02943        43.28518        19.93277
     2016.03217        51.93098        22.98115
     2016.03491        91.65878        21.26207
     2016.03765        79.75157        22.34579
     2016.04038        79.84137        20.87680
     2016.04586        87.34797        22.49674
     2016.04860        75.66176        22.11147
     2016.05133        86.19556        22.01233
     2016.05407        86.59136        23.06902
     2016.06776        98.43135        22.00783
     2016.07050       105.42714        21.34318
     2016.08693        88.62293        19.59255
     2016.10335        78.67371        20.07696
     2016.35968        33.88086        26.84288
     2016.36071        45.73966        17.48370
     2016.36345        44.60147        17.69548
     2016.36619        38.36827        17.79011
     2016.36893        45.18607        17.57382
     2016.37166        54.38086        17.72928
     2016.37440        42.13466        17.50172
     2016.37714        26.94546        17.44314
     2016.37988        46.20725        18.25424
     2016.38261        40.68305        17.60761
     2016.38535        44.68485        17.61888
     2016.38810        43.14165        17.37104
     2016.39083        40.88044        17.47919
     2016.39357        35.06824        17.74505
     2016.39630        47.40404        17.66619
     2016.39904        49.68683        17.26290
     2016.40178        33.94163        17.41610
     2016.40452        42.93143        17.05336
     2016.40726        48.67424        17.75857
     2016.40999        35.99602        17.69548
     2016.41273        35.69582        17.40259
     2016.41547        38.30962        18.17764
     2016.41821        59.16542        18.03795
     2016.42094        42.81621        17.73829
     2016.42368        44.06201        17.77885
     2016.42643        49.30582        17.36879
     2016.42916        50.56361        17.35753
     2016.43190        58.03040        17.51749
     2016.43463        38.38920        17.58283
     2016.43737        71.28100        17.16376
     2016.44011        52.54580        17.47018
     2016.44285        46.45259        17.10969
     2016.44559        46.90640        17.03984
     2016.44832        49.43119        17.65943
     2016.45106        42.02099        17.47243
     2016.45380        46.32478        17.44314
     2016.45654        45.66158        17.21558
     2016.45927        46.20038        17.22910
     2016.46201        54.62218        17.56481
     2016.46475        41.12998        17.38006
     2016.46749        53.87677        17.71801
     2016.47023        51.40257        17.44539
     2016.47296        39.83237        17.37780
     2016.47570        47.47516        17.79687
     2016.47844        56.17596        18.35112
     2016.48118        51.96476        17.33049
     2016.48392        44.61656        17.09842
     2016.48665        49.80135        17.31472
     2016.48939        44.97215        17.14349
     2016.49213        46.56495        17.15250
     2016.49487        50.08575        17.14349
     2016.49760        53.84154        17.32373
     2016.50034        40.37834        17.80138
     2016.50308        51.11415        18.18890
     2016.50582        45.35393        17.84418
     2016.50856        43.89973        17.16151
     2016.51129        41.93153        16.95648
     2016.51403        44.04033        16.92043
     2016.51677        53.45412        17.48144
     2016.51951        59.92292        18.24523
     2016.52225        55.26673        17.26740
     2016.52498        47.50352        16.71766
     2016.52772        45.57631        16.66809
     2016.53046        51.70511        16.78976
     2016.53320        47.59691        16.63655
     2016.53593        40.61471        16.96775
     2016.53867        44.36850        16.63655
     2016.54141        43.20031        16.72667
     2016.54415        58.57510        16.69287
     2016.54689        55.35490        16.62303
     2016.54962        47.98469        17.33274
     2016.55236        51.31649        17.24713
     2016.55510        53.05829        18.10329
     2016.55784        46.63709        16.90016
     2016.56058        55.79789        16.71090
     2016.56331        49.33868        16.64556
     2016.56605        43.36648        18.13032
     2016.56879        38.24428        17.13898
     2016.57153        46.55807        17.05787
     2016.57426        46.27087        17.41385
     2016.57700        46.02867        17.35527
     2016.57974        49.01247        16.98352
     2016.58248        46.45526        16.81905
     2016.58522        46.07406        17.26290
     2016.58795        44.03586        17.12771
     2016.59069        42.51566        16.88213
     2016.59343        53.90245        17.03309
     2016.59617        54.68525        16.98802
     2016.59891        40.92506        16.99929
     2016.60164        65.51685        17.23586
     2016.60438        51.13164        16.78525
     2016.60712        46.41544        17.02407
     2016.60986        47.38324        17.18179
     2016.61259        38.53103        16.97451
     2016.61533        46.14083        17.25839
     2016.61807        50.13364        17.46117
     2016.62081        48.49143        16.80553
     2016.62355        57.41722        17.06238
     2016.62628        50.02702        16.86185
     2016.62902        48.87582        17.00380
     2016.63176        54.26862        17.64141
     2016.63450        49.74541        16.71315
     2016.63724        55.51822        16.95423
     2016.63997        50.64201        17.06688
     2016.64271        47.73881        16.75145
     2016.64545        52.91860        17.15700
     2016.64819        48.15040        16.87537
     2016.65092        52.95320        17.25839
     2016.65366        51.91400        17.18404
     2016.65640        41.60080        17.29669
     2016.65914        36.53959        17.35527
     2016.66188        49.41039        17.37104
     2016.66461        44.05319        17.24713
     2016.66735        67.35698        18.31057
     2016.67009        58.87178        18.15736
     2016.67283        48.21458        17.25163
     2016.67557        51.36638        17.39132
     2016.67830        47.94117        17.55354
     2016.68104        60.06797        17.29895
     2016.68378        48.65277        18.04921
     2016.68652        54.06357        18.16637
     2016.68925        55.83336        17.41385
     2016.69199        49.59216        17.37104
     2016.69473        52.29997        17.64817
     2016.69747        49.23176        17.22460
     2016.70021        54.31755        17.24262
     2016.70294        54.56735        18.02218
     2016.70568        45.76715        19.32444
     2016.70842        52.40795        19.34472
     2016.71116        63.96874        17.45441
     2016.71390        51.28055        17.60761
     2016.71663        47.77634        17.33499
     2016.71937        48.55313        17.49046
     2016.72211        44.90693        17.05787
     2016.72758        54.17753        17.12997
     2016.73032        50.02632        17.30345
     2016.73306        53.31713        17.91403
     2016.73580        48.18992        17.44765
     2016.73854        22.64572        18.28128
     2016.74127        28.13951        17.12771
     2016.74401        51.34131        18.10103
     2016.74675        51.30911        17.37555
     2016.74949        55.76791        17.79011
     2016.75223        50.12571        17.64141
     2016.75496        50.97050        17.37104
     2016.75770        54.02130        17.15700
     2016.76044        55.44210        17.69999
     2016.76318        57.49189        17.34175
     2016.76591        44.90269        17.76082
     2016.76865        41.91649        17.45666
     2016.77139        44.89729        18.16412
     2016.77413        32.57508        17.85094
     2016.77687        48.93088        17.42737
     2016.77960        49.61568        17.74730
     2016.78234        41.41648        17.65268
     2016.78508        52.14427        18.20467
     2016.79056        35.62088        18.33760
     2016.79329        60.10667        17.65943
     2016.79877        43.29326        17.63916
     2016.80424        43.92686        17.33725
     2016.80698        38.16665        17.51975
     2016.80972        16.90546        17.45215
     2016.81246        40.32125        18.16862
     2016.81520        39.53905        17.73379
     2016.81793        38.87884        17.97937
     2016.82067        41.71764        17.91403
     2016.82341        50.65644        17.32824
     2016.82615        38.07423        18.21594
     2016.83984        24.87122        18.05372
     2016.84257        32.39702        17.40484
     2016.84531        18.02682        18.15285
     2016.84805        36.44262        18.12582
     2016.85079        36.68241        18.20918
     2016.85352        30.19121        18.25875
     2016.85626        25.61101        18.48856
     2016.85900        38.48380        18.56066
     2016.86174        19.86760        18.12582
     2016.86448        33.15740        18.65303
     2016.86722        49.57520        18.30381
     2016.86995        35.20599        17.92304
     2016.87269        39.22279        18.20017
     2016.87543        28.65659        18.26776
     2016.87817        31.76539        17.79462
     2016.88090        40.13518        17.90502
     2016.88364        28.09198        18.04696
     2016.88638        24.65179        18.47729
     2016.88912        41.01058        18.20467
     2016.89185        39.74337        18.17989
     2016.89459        35.43417        18.23622
     2016.89733        33.19597        18.32634
     2016.90007        23.82077        18.49982
     2016.90281        20.75056        18.54488
     2016.90555        36.28437        18.60121
     2016.90828        40.90416        18.48856
     2016.91102        37.38596        17.90727
     2016.91376        39.18075        18.10779
     2016.91650        30.44255        18.80399
     2016.91923        20.87835        18.85806
     2016.92197        16.95315        18.60121
     2016.92471        24.97195        18.41871
     2016.92745        36.32774        18.50208
     2016.93018        34.78654        18.47279
     2016.93292        35.08733        18.45251
     2016.93566        39.05813        18.31057
     2016.93840        16.27293        19.95079
     2016.94114         2.93273        17.97261
     2016.94388       -11.54747        18.68908
     2016.94661        -7.00368        18.83553
     2016.94935        33.39312        18.21594
     2016.95209        32.87792        17.99739
     2016.95483        31.82571        18.21369
     2016.95756        35.07651        17.92304
     2016.96030        34.82831        18.02218
     2016.96304        28.32211        18.21369
     2016.96578        37.39190        18.32183
     2016.96851        34.42070        18.76343
     2016.97125        12.15550        18.63275
     2016.97399        35.75030        19.24333
     2016.97673        27.69809        18.57643
     2016.97947        22.46389        18.36464
     2016.98221        38.88670        18.78371
     2016.98494        38.96149        19.63086
     2016.98768        23.04528        18.56967
     2016.99042        32.63808        18.80173
     2016.99316        34.56788        18.50658
     2016.99589        26.92768        19.48891
     2016.99863        38.01547        18.56291
     2017.00137        28.40528        18.48405
     2017.00411        14.36807        18.91439
     2017.00684        11.77887        19.29966
     2017.00958        13.59566        19.78632
     2017.01232        38.67946        19.52947
     2017.01506        32.60226        19.36950
     2017.01780        28.99706        19.89897
     2017.02054        35.46186        19.66465
     2017.02327        31.20665        19.97332
     2017.02601        37.28245        19.22981
     2017.02875        34.24925        19.89897
     2017.03149        13.99604        20.11301
     2017.03422        34.57484        19.42132
     2017.03696        28.12264        19.15546
     2017.03970        40.81444        19.23883
     2017.04244        39.21423        19.21404
     2017.04517        34.30403        20.47800
     2017.04791        28.49783        19.69620
     2017.05065        45.45462        20.20313
     2017.05339        58.14042        18.79272
     2017.05613        48.27622        19.22756
     2017.05887        23.42803        19.20954
     2017.06160        50.00781        18.88059
     2017.06434        43.96361        19.39654
     2017.06708        43.32141        19.00451
     2017.06982        42.79421        19.13068
     2017.07255        36.10400        18.49757
     2017.07529        39.38280        18.58093
     2017.07803        30.60361        18.81525
     2017.08077        35.39640        18.70485
     2017.08350        31.75519        18.59220
     2017.08624        33.33799        18.56066
     2017.08898        38.80879        18.57643
     2017.09172        28.40359        18.78821
     2017.09446        29.99738        18.90087
     2017.10267        37.68378        18.95945
     2017.11088        35.23517        19.54524
     2017.11636        28.51877        18.96395
     2017.11910        28.61756        18.63275
     2017.12183        28.92136        18.57868
     2017.12457        22.43716        18.87834
     2017.12731        29.09895        18.84905
     2017.13005        38.40375        18.72062
     2017.13279        44.94955        18.33535
     2017.13553        29.78035        18.63501
     2017.14648        34.32753        18.66204
     2017.15469        41.70894        18.53587
     2017.19302        93.30710        20.13554
     2017.41374        33.87586        26.77754
     2017.42301        41.90409        17.44990
     2017.44764        39.26625        17.14574
     2017.45038        46.94205        17.15475
     2017.45859        41.45644        17.52425
     2017.46407        43.11804        17.20882
     2017.46680        49.42083        17.41836
     2017.46954        27.31963        16.94522
     2017.47228        36.53343        16.81003
     2017.47502        38.33723        16.81679
     2017.47775        38.22602        16.64331
     2017.48597        48.92042        16.64556
     2017.50240        42.48020        16.81454
     2017.50787        40.60980        16.54417
     2017.51061        50.88859        16.88664
     2017.51335        56.01939        17.16151
     2017.52156        47.83978        16.73794
     2017.52430        35.05758        16.55319
     2017.52977        45.47118        16.54643
     2017.55441        42.40335        16.70639
     2017.56263        55.19475        16.84608
     2017.56537        45.37854        16.81905
     2017.59549        48.52233        16.77398
     2017.60370        47.25571        16.80102
     2017.64203        57.07987        17.17728
     2017.67488        47.95544        17.12095
     2017.67762        57.77224        16.97225
     2017.68036        59.69603        17.19756
     2017.68309        54.58183        17.44089
     2017.68583        55.21863        18.99324
     2017.68857        58.64943        17.33274
     2017.69678        68.05782        17.30120
     2017.74059        56.41558        17.47919
     2017.74606        61.50217        17.78786
     2017.74881        57.31599        17.68872
     2017.75154        50.61177        17.56255
     2017.75428        53.12457        17.40935
     2017.75702        47.96036        18.27902
     2017.75975        50.16616        17.17728
     2017.76249        50.80396        17.51524
     2017.76523        52.97176        18.13483
     2017.76798        42.03657        17.64366
     2017.77070        49.97935        17.38456
     2017.77344        50.90815        17.43638
     2017.77618        50.36495        17.48595
     2017.77892        48.44874        17.44089
     2017.78439        46.17634        17.37330
     2017.78714        46.04815        17.74956
     2017.78987        47.14093        17.82616
     2017.79261        51.48073        18.63951
     2017.80082        58.76512        18.59670
     2017.80356        44.47692        18.12356
     2017.80631        27.27773        20.19637
     2017.80903        34.29051        18.26325
     2017.81177        34.90231        17.75181
     2017.81725        53.36991        17.87798
     2017.81999        41.29470        18.00190
     2017.82272        43.19550        17.87798
     2017.82547        43.93932        17.84644
     2017.82820        41.41910        17.95233
     2017.83094        48.26789        17.91178
     2017.83368        46.38469        17.76308
     2017.83641        48.30349        17.70224
     2017.83915         9.42429        17.61888
     2017.84189        24.09308        17.97937
     2017.84464        25.24990        18.15736
     2017.84736        10.33968        18.10103
     2017.85010        41.16148        17.94332
     2017.85284        43.86727        18.36464
     2017.85558        30.68607        19.18700
     2017.85832        28.85387        18.75442
     2017.86653        30.93826        18.84905
     2017.86927        33.84106        18.42322
     2017.87201         7.67886        18.70260
     2017.87474        19.83365        19.27487
     2017.88022        32.23625        18.65754
     2017.88297        39.88006        19.08336
     2017.90213        -5.27336        19.98233
     2017.90486        31.75942        18.22495
     2017.90760        37.45622        17.99063
     2017.91034        39.08602        18.25649
     2017.91307        42.73582        18.57868
     2017.91581        34.85061        18.36689
     2017.91855        23.56341        18.52010
     2017.92130        28.69323        18.94368
     2017.92402        37.51201        18.81750
     2017.92676        37.15980        18.08977
     2017.92950        38.56460        18.87158
     2017.93224        42.20840        18.77019
     2017.93498        42.03420        18.58544
     2017.93771        40.54899        18.87383
     2017.94046        43.94481        19.02253
     2017.95688        41.88458        18.56967
     2017.96235        46.72917        19.00676
     2017.96509        32.44397        19.25685
     2017.96783        16.80777        18.65754
     2017.97057        42.64556        18.50658
     2017.97331        39.57636        18.55390
     2017.97604        32.21916        18.74541
     2017.97879        42.90997        18.29254
     2017.98152        31.93075        18.51334
     2017.98426        36.58255        18.36464
     2017.98700        38.87235        18.65979
     2017.98973        39.67715        18.33084
     2017.99521        18.51474        20.15582
     2018.01164        48.21052        18.82426
     2018.01437        42.73432        18.74315
     2018.01712        41.55514        18.68232
     2018.01985        29.61892        19.11040
     2018.02259        30.52571        18.45927
     2018.02533        25.43051        19.01127
     2018.03354        32.06290        19.80434
     2018.03901        46.04550        18.27902
     2018.04175        33.95330        19.11491
     2018.04997        38.05669        19.13068
     2018.08008        26.24046        19.44836
     2018.08556        42.24606        18.46603
     2018.08830        41.00485        20.41267
     2018.09378        47.70746        19.26586
     2018.09651        35.69925        19.33120
     2018.10198        43.30084        19.20052
     2018.10472        29.88464        19.77280
     2018.10746        37.91243        18.53813
     2018.11841        41.12762        18.39168
     2018.12115        41.71442        18.64402
     2018.12389        34.89422        18.25649
     2018.12936        42.19981        18.58319
     2018.13484        40.14041        18.11455
     2018.42231        54.08513        17.36879
     2018.43053        44.78553        16.94071
     2018.44422        47.97252        16.62303
     2018.45243        49.97691        16.78976
     2018.49076        35.96708        16.77624
     2018.51814        37.60605        17.18855
     2018.52088        51.33685        17.39357
     2018.52361        44.35265        17.21108
     2018.52635        46.06544        17.27867
     2018.56194        50.41881        17.10068
     2018.56468        46.22661        16.92269
     2018.58030        23.16897        66.06404
     2018.58658        50.41699        17.24487
     2018.59944       111.22252        42.88688
     2018.60575        48.29957        17.62113
     2018.61670        49.42075        17.58734
     2018.61944        54.40156        17.45215
     2018.62218        68.55235        18.03795
     2018.62491        53.59915        17.22234
     2018.65503        48.22392        17.51524
     2018.67420        49.84250        17.78786
     2018.67693        49.62230        16.94747
     2018.68969        74.14966        30.71137
     2018.71164        49.76412        32.06997
     2018.71252        54.01266        17.58734
     2018.71800        35.80326        17.56706
     2018.72806        63.04490        30.48382
     2018.73990        42.41564        17.81490
     2018.77731        63.24118        29.07115
     2018.77891        42.99700        14.90395
     2018.78097        43.27360        18.68007
     2018.78371        52.26940        18.05823
     2018.78645        50.50020        17.83067
     2018.79261        47.66199        15.61591
     2018.79466        57.46858        18.15511
     2018.79740        49.85739        18.28128
     2018.80014        54.62019        17.34175
     2018.80561        55.83178        17.93881
     2018.83025        35.87096        19.24784
     2018.83299        52.67976        18.34211
     2018.84668        32.43574        18.96846
     2018.85216        47.93534        17.75181
     2018.85763        40.58493        18.57192
     2018.86037        48.36873        18.23396
     2018.86311        46.39353        18.16187
     2018.86858        31.54012        18.36464
     2018.87680        49.96551        18.64402
     2018.88227        53.70211        18.62599
     2018.88501        47.50591        18.62825
     2018.88775        57.76270        18.83102
     2018.89049        49.37050        19.85616
     2018.89322        35.85230        18.93917
     2018.90144        57.57169        18.89636
     2018.90418        35.80549        19.43484
     2018.90965        39.25408        18.08751
     2018.91239        33.12988        19.46864
     2018.91786        43.93248        19.11941
     2018.92060        50.98627        19.45737
     2018.92334        47.81907        18.82652
     2018.92608        52.66887        18.14609
     2018.93429        52.45226        19.15321
     2018.93977        33.81286        19.34247
     2018.94524         2.60945        20.51405
     2018.94798         2.62925        19.63987
     2018.95072        47.81305        20.94664
     2018.95619        48.22164        18.49532
     2018.95893        38.65944        18.99775
     2018.96441         2.84203        19.72999
     2018.99726        40.97560        18.76794
     2019.00000        43.58940        19.05633
     2019.00548        48.14299        19.37401
     2019.00821        36.33979        20.00937
     2019.01095        51.88859        18.88284
     2019.01369        47.71839        20.08372
     2019.01643        41.34518        19.04957
     2019.01916        49.73998        18.90312
     2019.02190        38.33278        20.07246
     2019.02738        56.38537        19.82011
     2019.03012        54.62417        19.79758
     2019.03559        39.78877        19.49793
     2019.04654        49.29396        18.50658
     2019.04928         4.48775        19.74802
     2019.05202        24.99555        20.37887
     2019.05476        28.20935        19.96431
     2019.05749        51.40615        19.78632
     2019.06023        27.72394        20.04091
     2019.07118        46.88413        19.49567
     2019.07392        40.68393        18.29029
     2019.08487        48.57112        19.49567
     2019.10404        47.31670        18.04020
     2019.10951        38.32430        19.20503
     2019.11773        92.67469        20.30001
     2019.13142        91.18668        20.21214
     2019.13415        88.65347        19.66240
     2019.13689        96.35227        19.83588
     2019.15606       103.64085        21.19673
     2019.15880       102.84865        19.51595
     2019.16701        93.98604        19.47089
     2019.17248       102.18464        19.61959
     2019.17522       107.09043        19.92375
     2019.17796       106.84723        19.64663
     2019.18344        83.26983        18.71837
     2019.19165        85.56922        20.54334
     2019.19439       115.73502        18.94818
     2019.20260        96.51041        18.55164
     2019.20534       112.46321        18.63050
     2019.20808       103.34900        19.56777
     2019.21355       102.41360        18.77695
     2019.34497        33.27888        17.87347
     2019.35044        28.00547        17.79011
     2019.35318        37.93227        17.68422
     2019.35866        36.01686        17.43188
     2019.37235        58.50985        17.34175
     2019.37509        39.53965        17.70450
     2019.37782        45.80245        17.64366
     2019.38056        50.20224        17.42061
     2019.38604        47.09384        17.18855
     2019.38877        43.53363        17.38231
     2019.39151        47.02743        17.50172
     2019.39425        43.56723        17.24938
     2019.39699        42.57603        17.15475
     2019.40246        40.83162        16.71541
     2019.40794        47.14622        16.70414
     2019.41342        36.19881        16.56220
     2019.41615        45.71061        16.99929
     2019.42163        40.54920        16.73568
     2019.43806        35.63699        17.43864
     2019.44901        38.54218        17.44765
     2019.45722        38.48357        17.35302
     2019.46270        44.87117        18.23171
     2019.49008        47.24514        16.59374
     2019.49281        42.75594        17.25163
     2019.49555        42.08473        17.04435
     2019.49829        50.19853        17.38231
     2019.50376        40.57913        17.03534
     2019.50924        44.24272        17.39583
     2019.51198        55.97752        17.01731
     2019.53456        54.86909        12.94154
     2019.53730        58.22789        12.88071
     2019.54004        67.48168        12.90099
     2019.54277        60.41548        12.90549
     2019.54551        57.46128        13.07222
     2019.55373        50.13067        13.11277
     2019.55920        44.84927        13.07447
     2019.56194        49.11306        12.36025
     2019.56468        45.28086        12.66441
     2019.56741        36.73966        12.48868
     2019.57289        52.50525        12.69596
     2019.57563        60.75205        12.35575
     2019.58932        62.43704        12.51346
     2019.59206        58.58784        12.75454
     2019.59479        47.87663        12.72525
     2019.59753        60.83743        13.04067
     2019.60027        59.85323        13.06321
     2019.60301        52.11003        12.38954
     2019.61396        56.08922        12.83339
     2019.61670        51.60401        12.44362
     2019.61943        45.97781        12.47291
     2019.62217        46.67561        12.87620
     2019.62491        60.42741        12.65090
     2019.64407        47.70199        12.70722
     2019.64681        43.50278        12.47065
     2019.64955        53.84558        12.51121
     2019.65503        56.90718        12.82213
     2019.65776        53.86497        12.97534
     2019.66324        56.94857        12.51346
     2019.66598        53.84537        12.54050
     2019.66872        57.39916        12.56077
     2019.67145        59.72596        13.13305
     2019.67693        49.35256        13.13080
     2019.68240        49.00615        12.61935
     2019.68788        62.62475        12.58105
     2019.69062        64.24654        12.70272
     2019.69336        55.48134        12.49769
     2019.69609        56.08314        12.52923
     2019.69883        57.78494        12.78608
     2019.70157        60.42373        12.52022
     2020.51872        49.80059        50.04483
     2020.52019        50.84517        12.91901
     2020.53114        45.65236        12.51346
     2020.53388        56.12515        12.39855
     2020.53935        49.50975        12.49318
     2020.54757        61.90814        12.30167
     2020.56673        52.43772        12.53824
     2020.57221        70.64632        13.54085
     2020.57494        56.33212        12.92577
     2020.58590        67.25631        13.18487
     2020.58863        60.40310        12.97308
     2020.59137        53.12090        12.86494
     2020.59411        67.35870        13.13756
     2020.60506        57.41489        12.79509
     2020.61054        53.21748        12.88972
     2020.61327        56.08728        12.84917
     2020.61601        53.31408        12.80410
     2020.62423        65.39947        12.97534
     2020.62696        55.07027        13.65351
     2020.62970        71.89106        13.39666
     2020.63518        67.53166        13.52733
     2020.64339        52.49505        12.78608
     2020.64613        53.80285        12.80410
     2020.64887        56.77565        12.99787
     2020.65434        55.66724        12.83339
     2020.66256        58.92563        12.78383
     2020.66803        61.35123        12.85818
     2020.67077        61.06703        13.12404
     2020.67351        61.26682        12.75228
     2020.68172        51.76022        12.86268
     2020.68446        54.70801        13.29302
     2020.68720        64.64481        12.90099
     2020.68993        55.89661        12.79734
     2020.70089        64.80380        12.84466
     2020.70362        50.48260        12.89197
     2020.70910        57.55619        13.86304
     2020.71184        59.08899        13.25471
     2020.72279        57.86218        12.80185
     2020.76759        92.56269        25.51358
     2020.76933        71.08973        13.24570
     2020.77754        62.08213        12.95281
     2020.78028        63.78492        13.11728
     2020.78302        52.24272        13.19388
     2020.78576        71.34652        12.90774
     2020.78850        61.91832        12.80185
     2020.79671        71.44271        13.13530
     2020.80219        63.45630        13.12178
     2020.82409        59.27568        12.87620
     2020.82683        58.92048        12.98660
     2020.83504        61.46387        13.13756
     2020.83778        65.36167        12.73651
     2020.84052        56.43347        13.17811
     2020.84599        44.09806        13.26823
     2020.86516        50.52964        13.24796
     2020.87337        48.53104        12.95281
     2020.87611        48.20583        13.46875
     2020.87885        49.74763        13.29302
     2020.88158        42.88043        12.90324
     2020.89253        57.48262        12.60584
     2020.89801        53.82121        13.21867
     2020.90075        56.64701        12.42784
     2020.90349        60.57281        12.45263
     2020.91170        58.20420        12.95281
     2020.91444        52.17800        12.93703
     2020.91718        50.82580        12.54951
     2020.91991        47.15159        12.51346
     2020.92265        48.71039        12.59457
     2020.92539        50.70219        12.54275
     2020.92813        50.08099        12.55402
     2020.93086        46.68778        12.43010
     2020.93360        59.84858        12.76806
     2020.93634        40.63238        12.96182
     2020.93908        46.51917        12.66667
     2020.94182        51.16897        12.45263
     2020.95003        38.79936        12.61034
     2020.95277        37.30316        12.68244
     2020.96646        38.93115        12.89423
     2020.98015        50.02114        12.91000
     2020.98836        49.30853        12.37377
     2020.99110        54.77133        12.35575
     2020.99384        51.90112        12.30843
     2020.99657        24.10092        12.35800
     2020.99931        29.34772        12.78383
     2021.00752        32.72011        12.70722
     2021.01026        34.57691        12.65540
     2021.01300        44.99971        12.84015
     2021.03490        52.68609        12.80410
     2021.03764        43.20288        12.64864
     2021.04038        44.84068        13.16009
     2021.04585        47.75927        12.84691
     2021.04859        43.28307        12.67343
     2021.05407        48.08867        13.19839
     2021.05681        40.39346        12.95506
     2021.06502        45.30586        12.56303
