# ================= DQRFIT RESULTS ================
# INPUT FILE: series/TWRI.rad
# OUTPUT: LDETRENDED
# FILTER FUNCTION: f(t)
# f(t)=+line(t)+annual(t)+jumps(t)
# line(t)=+P 1+P 2*t
# annual(t)=+P 3*sin(2*pi*t+P 4)
# jumps(t)=+P 5*heav(t-2004.9268  )+P 6*heav(t-2009.4565  )+P 7*heav(t-2012.5914  )
# heav(t)=(t<0?0:1)
# TOTAL OBSERVATIONS MTOT= 3961
# INITIAL TIME INTERVAL= 2022.7488 - 2004.7666 = 17.9822
# TOTAL OBSERVATIONS AFTER PREFILTER M= 3795
# TIME-SPAN= 2022.7488 - 2004.7666 = 17.9822
# OBSERVATIONS: USED M=  3795 REJECTED MTOT-M=   166 %USED=   95.8091
# N=  7 PARAMETERS
# MAXSIG= 175.00000
# MAXRES= 430.13362
# SCALE FACTOR FOR LENGTHS: SCL=  10.00000
# SCALE FACTOR FOR SIGMAS: SCLSIG=   1.00000
# CHI^2=  21091.168 DOF=  3788 CHI^2/DOF=   5.56789
# RMS=     16.957 SDEV=     16.958 MEAN=   -0.13810
#  P #       PARAMETER +-    SIGMA %error PARAMETER NAME
# P 1 =      3805.61647 +-  204.190   5.37 YZERO                              
# P 2 =        -1.97947 +-    0.102   5.15 SLOPE                              
# P 3 =         9.42199 +-    0.372   3.94 ANNUAL AMPLITUDE                   
# P 4 =         2.12293 +-    0.031   1.47 ANNUAL PHASE                       
# P 5 =        -7.53990 +-    2.076  27.53 OFFSET 2004.9268                   
# P 6 =         1.57231 +-    0.880  55.99 OFFSET 2009.4565                   
# P 7 =       102.46000 +-    1.002   0.98 OFFSET 2012.5914                   
#       T            LDETRENDED       SIG_OBS
     2004.76660        -4.77996        14.98606
     2004.76884         5.18147        19.72657
     2004.77208         7.91188        15.21258
     2004.77482         5.03830        14.90111
     2004.77755        12.72172        14.94595
     2004.78029         5.31014        14.97190
     2004.78303         6.98756        14.89403
     2004.78577         3.71497        14.97898
     2004.78851        13.15839        15.09224
     2004.79124        -1.27119        14.57784
     2004.79398        19.37323        14.55189
     2004.79672        29.05365        14.51649
     2004.79946        36.63207        14.79257
     2004.80220        30.87849        15.01673
     2004.80493        21.15091        14.62739
     2004.80767        16.58333        14.97662
     2004.81041        31.39975        14.92471
     2004.81315        22.36717        14.51649
     2004.81588        20.85059        14.48818
     2004.81862        16.87001        14.95538
     2004.82136        17.30343        15.16067
     2004.82410         9.76185        15.05921
     2004.82684         0.69327        14.88695
     2004.82957        23.89969        15.31169
     2004.83231        16.30511        14.52121
     2004.83505       -12.60847        15.10640
     2004.83778         5.89394        15.04741
     2004.84052        -9.79865        15.08988
     2004.84325         8.63977        15.04505
     2004.84599         3.68718        15.30225
     2004.84873         4.95660        14.85628
     2004.85147        -1.85898        15.37540
     2004.85420        -2.79256        18.61046
     2004.85694         6.27186        15.34000
     2004.85968        12.47528        15.67507
     2004.86242         2.74170        15.43911
     2004.86516         1.99912        14.95538
     2004.86789        -2.77846        15.32821
     2004.87063        -3.24704        15.54529
     2004.87337        10.08138        15.57125
     2004.87611        18.00680        14.84684
     2004.87885         4.19122        15.15595
     2004.88158        17.27864        15.55945
     2004.88432        13.47306        15.56653
     2004.88706         0.49848        15.77418
     2004.88980         8.37890        15.72463
     2004.89253        -2.92968        15.61136
     2004.89527        -5.73226        15.73170
     2004.89801       -12.91984        16.41364
     2004.90075        21.59757        15.99834
     2004.90349        18.03099        15.84733
     2004.90622        19.54241        15.30225
     2004.90896         3.12983        15.51462
     2004.91170        -2.24475        14.97426
     2004.91444        -7.25733        15.14651
     2004.91718       -16.18291        15.20079
     2004.91991        -4.61749        15.29281
     2004.92265         3.87093        15.15359
     2004.92539         2.43635        15.34236
     2004.92807        14.03066        15.97947
     2004.98015        -0.56326        15.86148
     2004.98288        20.16716        15.04977
     2004.98562        11.38658        15.48866
     2004.98836         4.53700        15.48630
     2004.99110         7.54042        15.84497
     2004.99384         7.13084        15.60192
     2004.99657        -4.80674        15.02853
     2004.99920         2.90145        15.71991
     2005.00479        -4.01848        15.02617
     2005.00752       -17.17406        15.38720
     2005.01026       -22.62964        15.34944
     2005.01300        -0.66323        15.25978
     2005.01574         5.46019        15.58305
     2005.01848        10.96061        15.32585
     2005.01996       -32.50845        95.07924
     2005.08813       -12.93951        44.04264
     2005.08966       -11.83548        14.97662
     2005.09240       -10.92506        14.98842
     2005.09514        -2.68764        14.99550
     2005.09787         9.84278        15.00258
     2005.10061         1.07320        14.34660
     2005.10335         5.34862        14.71234
     2005.10609         8.34504        14.89167
     2005.10882        -7.77154        15.50046
     2005.11156        -2.13312        15.08044
     2005.11430        -2.69270        15.32585
     2005.11704        -5.72228        14.74774
     2005.11978        15.30614        14.76661
     2005.12251         5.03455        14.48582
     2005.12525         0.80897        14.91763
     2005.12799       -11.12061        15.24798
     2005.13073        -5.71119        15.74114
     2005.13347        -5.76877        15.10404
     2005.13620        -2.81735        15.42731
     2005.13894        -7.70993        15.13944
     2005.14168       -11.24551        14.82560
     2005.14442        -4.62909        15.55237
     2005.14715        -5.76167        16.08093
     2005.14989        -6.15425        16.14700
     2005.15263         1.18117        15.51698
     2005.15537        -2.24541        15.03561
     2005.15811        -6.56199        15.29517
     2005.16084        -3.08457        14.82796
     2005.16358        12.64885        14.96246
     2005.16632         5.57227        14.96246
     2005.16906         0.36869        15.49102
     2005.17180       -11.76789        15.46035
     2005.17453         2.88053        16.04318
     2005.17727        -9.88006        16.28150
     2005.18001         7.60536        15.74586
     2005.18275         1.98278        15.25034
     2005.18489         8.80103        22.67140
     2005.18822       -11.29538        15.43675
     2005.19096         4.06904        15.47686
     2005.19370        -0.62254        15.01909
     2005.19644        -2.52712        14.88459
     2005.19917        -4.69270        14.67931
     2005.20191        -2.38528        15.46978
     2005.20465        -2.77586        15.07337
     2005.20739         4.26356        14.83032
     2005.21013        -6.17102        14.57784
     2005.21286         0.21340        15.18663
     2005.21560         6.26582        15.09224
     2005.21834         0.70824        15.03797
     2005.22108        -0.80234        15.13000
     2005.22381         7.19208        14.65099
     2005.22655        -1.51850        14.48110
     2005.22929        -5.98108        14.64627
     2005.23203        -9.16067        14.70054
     2005.23477        17.49275        15.44619
     2005.23750        12.64817        14.94123
     2005.24024        17.82959        15.46507
     2005.24298        53.42101        15.56653
     2005.24572        52.78543        16.17768
     2005.24846        24.35485        15.49338
     2005.25119        14.89227        15.42023
     2005.25393        29.36969        16.07621
     2005.25667        36.71211        15.61844
     2005.25941        25.12453        15.40843
     2005.26214        -1.26305        15.48158
     2005.26488        -0.09863        15.52170
     2005.26762        -1.59321        15.29517
     2005.27036         3.50021        16.32161
     2005.27310        -2.17237        16.27678
     2005.27583         0.59705        15.68215
     2005.27857        -0.98053        15.24326
     2005.28131         5.05689        15.75294
     2005.28405        -0.25569        15.46743
     2005.28679         0.73972        15.26922
     2005.28952         1.64614        16.09745
     2005.29226         3.71156        15.88980
     2005.29500        -5.14102        14.95066
     2005.29774        -0.75360        16.44903
     2005.29982       -14.51647        23.40997
     2005.30321        -5.90976        16.50331
     2005.30595         5.78166        16.71095
     2005.30869         5.37908        17.29614
     2005.31143       -12.11050        16.59533
     2005.31416         1.58592        17.08142
     2005.31690         7.03534        16.72275
     2005.31964         2.54676        16.44196
     2005.32238        -4.86182        16.35937
     2005.32512        -7.20340        16.19419
     2005.32785         2.31702        16.20127
     2005.33059        -8.38656        15.90868
     2005.33333       -11.72114        17.38817
     2005.33607         3.02028        16.78410
     2005.33858         2.17424        18.47360
     2005.34154         9.39411        16.19183
     2005.34428        -2.11047        16.66140
     2005.34702        -8.63605        15.98655
     2005.34976       -15.57963        15.81429
     2005.35249        -7.43821        16.76051
     2005.35523        -8.80179        16.13284
     2005.35797        -2.50237        16.28386
     2005.36071        -5.58195        16.73455
     2005.36344        -4.97753        16.30038
     2005.36618         0.68089        16.13756
     2005.36892        -0.74969        16.81950
     2005.37166        -1.82927        16.59769
     2005.37440         9.16115        15.26450
     2005.37713         1.82457        15.76710
     2005.37987        14.38099        16.66140
     2005.38261         8.13041        16.40420
     2005.38535        12.39683        15.98655
     2005.38809         5.09625        16.00778
     2005.39082        12.00667        16.44432
     2005.39356       -11.04891        16.78174
     2005.39630       -12.05449        17.02007
     2005.39904        -7.39008        16.68028
     2005.40177        -9.29666        16.83130
     2005.40451        10.57176        16.32633
     2005.40725         0.88418        16.29330
     2005.40999        -6.89140        16.18004
     2005.41273        -8.77098        16.18476
     2005.41546       -24.81456        15.51226
     2005.41820       -22.31414        15.25742
     2005.42094        -5.90872        15.72699
     2005.42368        -2.48030        15.55473
     2005.42642       -10.36088        15.81665
     2005.42915        -2.59946        15.15831
     2005.43189       -12.18704        15.69867
     2005.43463       -21.85562        15.82373
     2005.43737        -7.59420        16.34757
     2005.44010        -9.36878        16.21307
     2005.44284       -19.53336        16.43252
     2005.44558       -23.38994        16.26970
     2005.44832         1.86748        17.35985
     2005.45106        -7.48810        16.21071
     2005.45379         2.33031        16.10925
     2005.45653       -12.82227        16.03610
     2005.45927       -18.03585        15.48866
     2005.46201         1.59257        15.99834
     2005.46475        -3.70601        15.99834
     2005.46748         0.29941        16.61657
     2005.47022        -9.44717        16.11397
     2005.47296        -7.33575        15.70339
     2005.47570        -8.33033        15.48866
     2005.47843        -6.04191        15.66799
     2005.48117         5.13551        15.83789
     2005.48391        -6.30307        15.14887
     2005.48665       -11.85365        15.16775
     2005.48939        -4.99823        15.08516
     2005.49212         0.08619        15.28337
     2005.49486        -6.18539        14.63211
     2005.49760        -8.53297        14.79729
     2005.50034        -2.00955        14.64627
     2005.50308        -8.80913        15.07809
     2005.50581       -10.31471        14.54953
     2005.50855        -2.29930        14.68874
     2005.51129        -7.19288        14.76897
     2005.51403        -7.80946        14.96010
     2005.51676        -6.90504        15.01202
     2005.51950        -1.04662        15.18899
     2005.52224        -9.16220        14.62032
     2005.52498         0.71222        14.71470
     2005.52772        -8.17236        15.00258
     2005.53045        -8.61394        14.40559
     2005.53319         2.33248        14.59436
     2005.53593        -5.35910        14.42683
     2005.53867        -1.67368        15.04977
     2005.54141        -4.76326        14.60380
     2005.54414         0.90816        14.87988
     2005.54688         0.77458        14.54953
     2005.54962        -4.76900        14.45042
     2005.55236        -3.09858        14.70290
     2005.55509        -6.33316        15.03089
     2005.55783         1.94026        14.54953
     2005.56057        -5.95132        14.68403
     2005.56331        -5.41291        15.00022
     2005.56605        -3.50649        15.12528
     2005.56878        -0.28407        15.30225
     2005.57152       -10.74465        15.69395
     2005.57426        -2.23823        14.90583
     2005.57700        -4.78781        14.77841
     2005.57974         0.33661        15.30933
     2005.58247         0.04303        15.00494
     2005.58521        -4.68955        14.94830
     2005.58795         7.35687        14.54245
     2005.59069        -3.21871        14.58492
     2005.59342        -3.64629        14.62739
     2005.59616         1.87813        14.65099
     2005.59890         0.89855        14.73594
     2005.60164         3.49497        14.73122
     2005.60438        -2.10461        14.67223
     2005.60711        -2.94019        14.66279
     2005.60985         7.92623        15.38720
     2005.61259         6.15265        15.45327
     2005.61533         0.18807        14.53301
     2005.61807         3.64848        14.39851
     2005.62080        -8.99210        14.79965
     2005.62354        -1.86668        15.45563
     2005.62628         7.10174        15.20551
     2005.62902         7.14316        14.67223
     2005.63175        -6.30042        14.53065
     2005.63449        10.81200        14.75010
     2005.63723        16.77942        14.87752
     2005.63997         9.17984        14.91055
     2005.64271         5.53126        14.83268
     2005.64544         4.21368        14.67695
     2005.64818         0.84510        14.45750
     2005.65092         4.67752        14.67931
     2005.65366         1.01994        14.56368
     2005.65639         3.56936        14.50469
     2005.65913        -4.48922        14.66987
     2005.66187         6.06320        14.78077
     2005.66461        -2.81638        14.70526
     2005.66735         3.55604        14.59436
     2005.67008         9.55146        14.83504
     2005.67282        -1.28813        14.52357
     2005.67556         4.85029        14.40323
     2005.67830        -4.52929        14.39615
     2005.68104        -4.54887        14.71234
     2005.68377        -5.94345        15.14415
     2005.68651         0.52297        14.59672
     2005.68925        -3.10661        14.68403
     2005.69199       -21.87519        14.55425
     2005.69472       -10.17477        15.47686
     2005.69746        -3.28835        14.74302
     2005.70020         8.47007        15.12292
     2005.70294         4.00149        14.88931
     2005.70568        -0.05409        14.87516
     2005.70841         3.11933        14.91763
     2005.71115        -3.40925        14.62503
     2005.71389         3.44317        14.76425
     2005.71663         0.84759        14.67459
     2005.71937         2.32301        14.70290
     2005.72210         1.89343        14.76897
     2005.72484        -4.18815        14.58020
     2005.72758        -1.97874        15.15831
     2005.73032        -8.15732        14.82560
     2005.73305         0.35310        14.60852
     2005.73579         8.08152        14.75717
     2005.73853         6.45594        15.07809
     2005.74127         2.25436        14.98842
     2005.74401        -0.20822        14.87044
     2005.74674         0.27120        14.48110
     2005.74948         0.23762        14.71706
     2005.75222       -11.91596        14.97898
     2005.75496         3.17846        14.77369
     2005.75770        -6.11812        14.90583
     2005.76043       -12.39270        14.67459
     2005.76317         1.81472        14.57548
     2005.76591         0.87014        14.61560
     2005.76865         2.05756        14.85864
     2005.77138        -0.46502        14.59908
     2005.77412         0.64340        14.63683
     2005.77686        -2.79718        14.93651
     2005.77960         0.58024        14.97426
     2005.78234         3.32166        15.15831
     2005.78507         3.19807        14.81145
     2005.78781        11.62249        14.73830
     2005.79055        -6.27109        14.72650
     2005.79329         5.49133        14.75010
     2005.79603         5.89675        14.84212
     2005.79876        -1.32683        14.95066
     2005.80150        -7.06741        14.66515
     2005.80424         2.97501        14.70762
     2005.80698        -0.68957        14.36783
     2005.80971         3.82785        14.54245
     2005.81245        -7.15773        14.30176
     2005.81519         0.72269        14.40323
     2005.81793        10.89611        14.66043
     2005.82067        -8.33647        14.35604
     2005.82340        -2.30705        14.61796
     2005.82614         0.09537        14.53301
     2005.82888         2.68379        14.33716
     2005.83162         6.31221        15.02617
     2005.83436         2.74663        14.91055
     2005.83709        -4.84595        14.82324
     2005.83983        -8.03254        15.12292
     2005.84257         3.24388        15.27393
     2005.84531        -2.67770        15.80721
     2005.84804        17.08472        15.52406
     2005.85078        12.19814        15.05685
     2005.85352        18.09256        15.10404
     2005.85626         4.25898        16.02902
     2005.85900         2.98840        15.72463
     2005.86173         0.40482        15.34000
     2005.86447        -8.63876        14.72414
     2005.86721        -7.57634        15.39900
     2005.86995       -11.05692        15.15359
     2005.87269       -23.69750        16.27442
     2005.87542       -11.69608        16.24139
     2005.87816       -15.96266        16.55522
     2005.88090       -11.25624        15.91812
     2005.88364        -5.68882        16.36173
     2005.88637       -12.80640        15.55709
     2005.88911        -1.84398        16.07149
     2005.89185        -9.63756        15.43439
     2005.89459        -3.12715        15.35652
     2005.89733        -6.36373        15.92755
     2005.90006       -15.78731        15.17719
     2005.90280       -26.89489        14.99314
     2005.90554       -41.11247        14.98606
     2005.90828       -36.73805        14.66515
     2005.91102       -11.48863        15.09696
     2005.91375       -23.75421        14.91763
     2005.91649       -26.76979        14.96246
     2005.91923       -19.91437        15.03797
     2005.92197       -18.95995        14.42918
     2005.92470       -32.96853        14.77133
     2005.92744       -30.97811        14.96718
     2005.93018       -21.08169        14.64391
     2005.93292       -17.42627        14.64391
     2005.93566        -9.97685        16.24139
     2005.93839       -15.58343        16.94220
     2005.94113       -16.32101        17.05782
     2005.94387        -7.62959        16.55286
     2005.94661        -9.54417        15.86856
     2005.94935       -19.25476        14.97190
     2005.95208       -16.38434        14.96954
     2005.95482       -22.33792        15.86148
     2005.95675         7.84390        23.20468
     2005.96030        -6.91408        14.97662
     2005.96303       -16.66066        15.26214
     2005.96577       -13.59924        15.71991
     2005.96851        -4.78282        16.27206
     2005.97125       -15.48940        15.54057
     2005.97399        -6.74898        15.26686
     2005.97672        10.89644        15.63732
     2005.97946       -19.97514        15.36832
     2005.98220        -0.75172        15.83789
     2005.98494        15.51870        15.01673
     2005.98767        -6.50888        16.54106
     2005.99041         9.79754        14.96718
     2005.99315         8.45296        15.30697
     2005.99589         4.43538        15.82845
     2005.99857        20.35768        16.43724
     2006.00410        21.62863        15.37540
     2006.00684         8.95405        15.31405
     2006.00958        -0.69253        15.21258
     2006.01232       -18.44311        15.47686
     2006.01505       -25.45069        15.65148
     2006.01779        25.79873        16.08093
     2006.02053        24.10515        15.63732
     2006.02327        16.37857        15.97475
     2006.02600        -8.10401        16.67556
     2006.02874       -37.78959        17.88605
     2006.03148       -18.78017        17.23007
     2006.03422       -26.69375        17.72560
     2006.03696       -10.95633        15.66328
     2006.03969       -16.18691        15.87328
     2006.04243       -15.49049        15.99362
     2006.04517        19.97493        17.58402
     2006.05065        42.71577        16.34993
     2006.05612        25.23861        16.04082
     2006.05886        -2.21398        15.46507
     2006.06160         4.40044        16.01722
     2006.06433        30.44086        16.40656
     2006.06707        29.40028        15.08752
     2006.06981        17.31470        15.09932
     2006.07255        27.92412        15.52642
     2006.07466        22.59930        21.58361
     2006.33935         4.71324        75.39986
     2006.34086        -1.42077        17.42828
     2006.34360        -8.00335        17.42828
     2006.34633       -14.91193        17.01771
     2006.34907        -0.26851        17.52267
     2006.35181        -8.55609        16.85725
     2006.35455       -17.75367        17.10501
     2006.35728       -14.06725        17.97100
     2006.36002        -2.65083        17.44480
     2006.36276       -13.41341        17.37637
     2006.36550       -19.12899        17.38345
     2006.36824       -13.24157        17.93797
     2006.37097        -8.41215        17.80111
     2006.37371       -13.07073        17.02243
     2006.37645         0.22769        17.10501
     2006.37919       -11.51689        17.08378
     2006.38193       -16.28447        16.18240
     2006.38466        -8.08105        16.93276
     2006.38740        -9.38163        16.78410
     2006.39014       -26.32922        17.10973
     2006.39288       -25.71980        17.35985
     2006.39561        -4.32438        17.01771
     2006.39835       -13.36196        16.41128
     2006.40109       -19.11254        15.98183
     2006.40383       -51.32012        16.98467
     2006.40657       -59.29770        17.57930
     2006.40930       -23.02828        17.21120
     2006.41204       -14.82286        18.20225
     2006.41478       -18.89744        17.62649
     2006.41752       -24.94302        17.79875
     2006.42026       -23.19460        17.14513
     2006.42299       -21.84418        17.28907
     2006.42573       -20.39776        17.33154
     2006.42847       -12.04034        17.45188
     2006.43121       -20.33192        16.98467
     2006.43394       -23.70850        16.53162
     2006.43668       -13.27908        16.80298
     2006.43942       -21.09366        15.80957
     2006.44216       -14.41424        15.73406
     2006.44490       -13.80783        16.97523
     2006.44763        -9.84541        16.12340
     2006.45037       -19.69299        16.42780
     2006.45311       -13.84157        16.00778
     2006.45585        -2.47415        17.00119
     2006.45859        -7.15573        15.58777
     2006.46132        -4.62231        15.88036
     2006.46406       -13.11889        15.78598
     2006.46680        -6.86347        15.92519
     2006.46954       -12.38005        15.94171
     2006.47227       -17.58063        15.83081
     2006.47501       -10.08721        15.66328
     2006.47775       -14.45979        15.53350
     2006.48049       -19.62037        15.46743
     2006.48323       -12.15895        16.31925
     2006.48596        -9.14553        16.22015
     2006.48870        -5.94911        16.02194
     2006.49144        -8.43369        15.47214
     2006.49418        -7.94927        15.64440
     2006.49692        -8.34785        15.08280
     2006.49965       -12.24544        15.29989
     2006.50239       -22.89302        15.08516
     2006.50513       -15.44760        15.61372
     2006.50787       -16.01918        14.92471
     2006.51060       -18.29976        15.21022
     2006.51334       -15.50334        15.13236
     2006.51608       -16.97892        15.45799
     2006.51882       -11.37050        15.11348
     2006.52156       -15.39508        15.12528
     2006.52429        -2.83866        14.98134
     2006.52703       -15.32724        15.53350
     2006.52977       -15.21882        15.36596
     2006.53251       -16.37640        15.37068
     2006.53525        -9.15098        14.76661
     2006.53798        -4.90456        15.08280
     2006.54072       -14.45914        15.05685
     2006.54346        -7.71272        14.74066
     2006.54620       -14.77130        14.42211
     2006.54893       -11.86388        14.41975
     2006.55167       -13.15646        15.02145
     2006.55441        -9.10305        14.57784
     2006.55715        -6.24963        14.83976
     2006.55989        -5.06121        14.62739
     2006.56262        -0.77379        14.58020
     2006.56536        -2.10037        14.50469
     2006.56810       -13.48895        14.61796
     2006.57084         2.13847        14.75246
     2006.57357       -10.10011        15.51934
     2006.57631        -8.38869        14.68639
     2006.57905         2.54973        15.61844
     2006.58179        -2.55785        15.05213
     2006.58453        -7.64943        16.51746
     2006.58726        -9.17301        16.11869
     2006.59000        -8.31159        16.26026
     2006.59274        -6.51017        16.15880
     2006.59548        -4.19375        15.85441
     2006.59822        -4.70133        16.37825
     2006.60095        -1.40891        15.28809
     2006.60369        -9.58849        14.87988
     2006.60643        -6.01607        15.71283
     2006.60917        -8.88766        14.74066
     2006.61190        -0.49124        15.58541
     2006.61464        -3.09282        14.90111
     2006.61738        -6.38140        15.69395
     2006.62012        -5.40598        14.92471
     2006.62286        -2.99956        15.29517
     2006.62559        -4.84914        15.04505
     2006.62833        -4.93472        15.53114
     2006.63107       -10.79930        14.28525
     2006.63381        -1.41588        14.56604
     2006.63655        -0.15046        14.63447
     2006.63928       -10.94904        14.58256
     2006.64202        -4.52262        14.38435
     2006.64476        -5.81920        14.74066
     2006.64750         1.78722        14.87044
     2006.65023        -0.66136        15.25506
     2006.65297        -1.34194        15.32821
     2006.65571        -7.39352        15.18427
     2006.65845        -1.75910        15.21258
     2006.66119       -10.47168        15.19843
     2006.66392        -2.25626        15.37540
     2006.66666        -7.61585        15.51462
     2006.66940        -1.02043        15.44855
     2006.67214        -0.74601        15.24562
     2006.67488         3.49141        15.57833
     2006.67761        -7.59717        15.65856
     2006.68035        -2.17675        15.20787
     2006.68309         3.88767        15.97475
     2006.68583         5.31909        16.02902
     2006.68856         4.71951        15.16539
     2006.69130        -0.65307        15.01437
     2006.69404        -0.32365        14.84684
     2006.69678         1.73677        15.17483
     2006.69952         8.23719        15.26686
     2006.70225         0.30261        15.42495
     2006.70499       -16.87297        14.87988
     2006.70773        -4.41055        14.49997
     2006.71047        -1.70713        14.85864
     2006.71321         3.97129        15.38248
     2006.71594        -3.36029        15.14180
     2006.71868       -17.93087        14.86808
     2006.72142         5.26054        14.89403
     2006.72416       -13.40604        15.21494
     2006.72689        -0.16762        15.30461
     2006.72963        -7.71720        15.10404
     2006.73237         2.41022        14.85628
     2006.73511        -3.39836        14.88224
     2006.73785        -4.33794        14.45042
     2006.74058         2.13148        14.60852
     2006.74332         2.24990        14.76425
     2006.74606         2.78832        14.85628
     2006.74880         4.61674        15.07573
     2006.75154         5.84816        15.19135
     2006.75427        -6.38542        15.00966
     2006.75701        -1.26600        14.66987
     2006.75975         4.43542        14.90111
     2006.76249        -0.04216        14.87988
     2006.76522        -7.23374        14.84448
     2006.76796       -10.00132        15.14415
     2006.77070        -1.64490        14.35840
     2006.77344        -0.31448        14.55896
     2006.77618        -1.26507        15.00022
     2006.77891         6.00535        14.56368
     2006.78165         5.63377        14.14839
     2006.78439        -0.86481        14.27817
     2006.78713         4.74661        14.98134
     2006.78987         2.59003        14.65807
     2006.79260        -6.80555        14.55896
     2006.79534        -7.94613        14.71942
     2006.79808         0.84329        14.67931
     2006.80082        -3.26829        14.58020
     2006.80355        -8.03087        14.59200
     2006.80629        -1.80145        14.22390
     2006.80903        -1.03103        14.42211
     2006.81177        -3.93561        14.58256
     2006.81451        -4.28019        14.52829
     2006.81724         1.51423        14.79729
     2006.81998        -4.76435        14.46930
     2006.82272        -2.94693        14.78549
     2006.82546         3.11449        14.54717
     2006.82820       -11.17709        14.27109
     2006.83093         4.01132        14.18378
     2006.83367        -3.66326        14.80201
     2006.83641         2.17316        14.61560
     2006.83915       -16.36042        14.57784
     2006.84188       -17.04700        14.87988
     2006.84462        -5.21058        14.64391
     2006.84736       -15.69516        14.53065
     2006.85010       -14.20574        14.69818
     2006.85284        -4.80332        14.98134
     2006.85557       -10.40090        15.02381
     2006.85831       -11.04048        14.89167
     2006.86105         2.66694        15.02145
     2006.86379         1.14836        15.17247
     2006.86653        -7.52022        15.07101
     2006.86926         0.83520        14.75246
     2006.87200         2.36962        14.83504
     2006.87474       -23.99196        15.50518
     2006.87748       -41.51554        15.28809
     2006.88021       -43.99812        16.08093
     2006.88295       -25.17970        15.18663
     2006.88569        -8.34229        14.55896
     2006.88843        17.50213        14.79965
     2006.89117        24.23255        14.50233
     2006.89390        23.80697        15.42259
     2006.89664        34.89939        15.06157
     2006.89938        37.38981        14.74774
     2006.90212        27.26323        14.75246
     2006.90485        40.49765        14.73358
     2006.90759        46.62107        14.32300
     2006.91033        40.96549        14.46694
     2006.91307        41.22891        14.83740
     2006.91854        22.13975        14.86336
     2006.92128       -18.16583        14.59200
     2006.92402       -24.55641        14.78313
     2006.92676       -20.34699        14.99786
     2006.92950       -24.69357        15.15595
     2006.93223        -8.78715        15.09696
     2006.93497        -9.46673        15.57597
     2006.93771       -10.31431        15.22674
     2006.94045         1.74010        15.09460
     2006.94318         5.79752        14.91291
     2006.94592       -10.57206        15.30461
     2006.94866        16.80436        15.72227
     2006.95140        -1.46622        16.19655
     2006.95414        18.19620        15.39664
     2006.95687        10.34462        15.08044
     2006.95961       -27.53396        15.90868
     2006.96235       -13.75454        15.18427
     2006.96509       -11.04712        16.13756
     2006.96783       -15.06770        15.34472
     2006.97056        -2.05428        15.25506
     2006.97330         1.47914        14.85628
     2006.97604        -9.31344        15.15359
     2006.97878       -16.84102        14.83504
     2006.98151        -0.56860        14.71942
     2006.98425         1.85182        14.81617
     2006.98699        15.02524        16.14228
     2006.98973       -10.55934        16.06677
     2006.99247       -40.45392        16.02194
     2006.99520       -23.03951        15.56653
     2006.99788       -19.69020        15.79777
     2007.20153        -9.37409        26.23681
     2007.20329       -15.03560        16.10689
     2007.20603        -9.90418        15.21494
     2007.20877       -28.84076        15.40372
     2007.21150       -27.85235        15.57361
     2007.21424        -0.46993        15.03325
     2007.21698       -10.20051        15.00730
     2007.21972       -20.15109        15.44619
     2007.22246       -12.25667        15.27629
     2007.22519       -13.08125        17.16636
     2007.22793       -32.50183        15.05685
     2007.23067       -21.84541        14.70762
     2007.23341       -22.69599        14.80909
     2007.23614       -22.06857        15.75530
     2007.23888       -17.12615        15.21022
     2007.24162       -16.36373        15.33293
     2007.24436       -15.56731        15.69159
     2007.24710       -13.78889        14.98842
     2007.24983        -9.34647        14.28997
     2007.25257       -15.74305        14.36076
     2007.25531       -11.58063        15.47922
     2007.25805       -17.33821        15.57125
     2007.26079        -8.56779        15.80721
     2007.26352        -3.79837        16.29330
     2007.26626       -18.10896        15.94879
     2007.26900       -17.35654        16.07149
     2007.27174         0.27488        14.68167
     2007.27447       -13.85870        15.49102
     2007.27721       -10.27928        15.45091
     2007.27995       -17.45086        15.52406
     2007.28269         0.01356        16.57881
     2007.28543        -6.92702        15.39428
     2007.28816       -19.36660        16.35701
     2007.29090        -8.44218        15.65856
     2007.29364       -16.90776        14.43862
     2007.29638       -18.91434        14.84684
     2007.30016       -58.88486        33.95519
     2007.30185       -10.53250        14.94595
     2007.30459       -13.97108        16.06913
     2007.30674        -4.64482        25.59971
     2007.34948        33.54278       127.32133
     2007.35106        -1.62610        19.01396
     2007.35387       -13.59053        17.77987
     2007.35650       -10.35534        20.31884
     2007.35935        -0.04869        17.06490
     2007.36209        -1.73227        20.71762
     2007.36483       -12.52284        18.71193
     2007.36756       -12.36043        18.86766
     2007.37032        -5.71198        16.68972
     2007.37304        -5.21759        17.44952
     2007.37577         3.27982        17.64773
     2007.37851       -16.42776        17.13333
     2007.38125       -14.15634        17.04838
     2007.38399        -1.66892        15.34472
     2007.38672       -14.24251        16.97759
     2007.38945        -9.50210        16.61657
     2007.39219        -7.65668        17.83886
     2007.39493        -7.65626        17.35042
     2007.39767         2.04316        17.32210
     2007.40041        -8.09842        16.51510
     2007.40314       -16.37900        17.44480
     2007.40588        -6.54258        16.47027
     2007.40862       -14.84716        16.86905
     2007.41136       -12.61174        16.72039
     2007.41410        -0.78332        16.94692
     2007.41683        -6.16390        16.13284
     2007.41957        -8.07348        16.20363
     2007.42231         1.43594        16.66140
     2007.42505       -31.95964        16.29802
     2007.42778       -23.69522        14.61324
     2007.43052       -41.07080        15.51934
     2007.43326        -2.65138        16.07149
     2007.43600        -4.99097        15.65148
     2007.43874       -16.01955        15.41787
     2007.44147       -17.31313        15.36832
     2007.44421       -15.70071        15.58777
     2007.44695       -20.55829        16.14464
     2007.44969       -12.50987        15.96295
     2007.45243       -14.35245        15.87328
     2007.45516       -19.73103        15.04977
     2007.45790       -32.77761        15.21966
     2007.46064       -13.73119        14.96954
     2007.46338        -7.86477        15.09224
     2007.46611       -14.90635        14.94830
     2007.46885        -4.71793        14.79729
     2007.47159       -15.57751        14.46458
     2007.47433        -9.42709        14.59908
     2007.47707       -24.69367        14.86572
     2007.47980       -15.12025        14.90347
     2007.48254       -23.13783        15.16303
     2007.48528       -14.66741        14.54717
     2007.48802       -25.09099        15.13236
     2007.49076        -8.78257        15.92284
     2007.49349       -14.23316        14.79729
     2007.49623       -14.32874        15.10876
     2007.49897       -19.20732        14.88695
     2007.50171       -19.32490        14.57312
     2007.50444       -15.85848        15.13236
     2007.50718       -15.93706        14.83032
     2007.50992       -14.00464        15.15359
     2007.51266       -10.63222        15.11820
     2007.51540        -7.81880        14.93651
     2007.51813        -8.26638        14.39615
     2007.52087        -8.81296        14.82324
     2007.52361       -16.83654        15.07101
     2007.52635        -3.82612        14.58020
     2007.52908        -5.76770        14.79729
     2007.53182        -2.97728        14.48346
     2007.53456        -7.80786        15.22910
     2007.53730        -2.72544        14.48346
     2007.54004        -8.61502        14.85156
     2007.54277       -17.38360        14.57076
     2007.54551        -7.24118        14.64391
     2007.54825       -15.64277        14.40323
     2007.55099       -11.31035        14.61560
     2007.55373       -20.55893        14.10827
     2007.55646       -13.49451        14.32772
     2007.55920        -1.18009        14.25693
     2007.56194        -6.09967        14.29469
     2007.56468       -15.21625        14.39143
     2007.56741        -7.01183        14.44806
     2007.57015        -5.04441        14.23569
     2007.57289        -8.08199        14.40087
     2007.57563        -9.71857        14.50233
     2007.57837       -10.31215        14.17434
     2007.58110        -4.88973        14.26165
     2007.58384        -6.44831        14.11063
     2007.58658        -5.23889        14.21682
     2007.58932        -9.54347        14.18142
     2007.59206        -5.99005        14.59436
     2007.59479         0.48537        14.79021
     2007.59753        -6.96621        14.37727
     2007.60027       -12.98779        14.02569
     2007.60301         3.12962        14.37019
     2007.60574        -0.33696        14.22626
     2007.60848        -7.36954        14.19794
     2007.61122         4.58188        14.49761
     2007.61396       -12.18670        14.16491
     2007.61670        -4.42328        15.30933
     2007.61943        -4.10786        15.58069
     2007.62217         4.58156        14.78077
     2007.62491        -4.10302        15.12056
     2007.62765         4.06140        15.30461
     2007.63039       -15.54018        15.22674
     2007.63312        -4.03876        15.18427
     2007.63586        -6.21134        14.57784
     2007.63860       -10.10992        14.73122
     2007.64134        -1.74250        14.64627
     2007.64407         2.55592        15.14415
     2007.64681       -12.25366        14.96010
     2007.64955         8.59176        15.30933
     2007.65229        -4.16082        15.80721
     2007.65503        -3.87940        15.34236
     2007.65776        -6.02899        15.40372
     2007.66033       -11.06590        16.20599
     2007.66324         2.23885        15.33529
     2007.66598         0.88627        15.11348
     2007.66872         1.78569        15.70811
     2007.67145        -4.58689        15.62788
     2007.67419        -4.60447        15.59721
     2007.67693         5.89995        15.45563
     2007.67967        -5.14063        15.59013
     2007.68240         1.63879        15.22202
     2007.68514         0.19321        15.59956
     2007.68788         2.53463        15.78598
     2007.69062        -0.93695        15.17247
     2007.69336         1.51947        15.07101
     2007.69609        -3.69111        15.27158
     2007.69883        -8.76969        15.23618
     2007.70157        -5.79627        15.36360
     2007.70431         1.77215        15.81901
     2007.70705         3.20657        15.50046
     2007.70978         2.05399        15.43439
     2007.71252        -3.13260        15.03561
     2007.71526         0.52882        14.39615
     2007.71800         1.48824        14.52357
     2007.72073         7.19066        14.69110
     2007.72347         4.28608        14.41503
     2007.72621       -12.74750        14.74774
     2007.72895        -3.09708        14.86808
     2007.73169        -2.20566        14.62739
     2007.73442         0.52676        14.24985
     2007.73716         1.35418        15.04741
     2007.73990        -4.00540        14.96482
     2007.74264       -14.54498        14.47638
     2007.74538        -1.41856        14.69582
     2007.74811         9.20186        15.25978
     2007.75085        39.99328        16.26026
     2007.75355         1.80662        15.80485
     2007.75633        42.81112        15.01437
     2007.75906        24.40354        16.43724
     2007.76180       -25.51804        15.79070
     2007.76454       -11.39162        15.73642
     2007.76728        -5.61721        18.23056
     2007.77002        11.80921        16.40184
     2007.77275        -3.71937        16.40184
     2007.77549        -0.56695        15.55473
     2007.77823         0.12347        15.13472
     2007.78097        -6.11611        16.85961
     2007.78366        -0.17177        14.67931
     2007.78644         8.54073        14.78549
     2007.78918       -10.30885        16.56466
     2007.79192         8.63757        16.23195
     2007.79461         8.16891        20.71526
     2007.79735         8.56132        17.33862
     2007.80013        -4.35317        18.20225
     2007.80283       -12.44584        18.08190
     2007.80559       -10.27336        16.57645
     2007.80835         4.84809        17.03187
     2007.81106         7.79145        16.04554
     2007.81378       -16.48616        19.66050
     2007.81656        -1.52065        18.02291
     2007.81930         1.59677        15.50518
     2007.82203        -7.90682        15.61136
     2007.82477        -6.62440        15.26214
     2007.82751       -11.31098        15.98655
     2007.83025       -10.05956        15.23618
     2007.83299        -1.62714        17.55335
     2007.83572        -0.81572        18.65058
     2007.83846         1.09870        14.91999
     2007.84120        -4.85088        16.41128
     2007.84360        -9.59814        16.94220
     2007.84668       -12.43104        14.92471
     2007.84941        -6.53862        14.97662
     2007.85215         1.52380        15.02145
     2007.85489        -1.35978        15.63024
     2007.85763        -6.65236        17.08142
     2007.86032        -3.78804        17.96156
     2007.86310         2.28448        18.68361
     2007.86579       -15.61921        20.59492
     2007.86773        -3.96736        28.33453
     2007.87127         2.30565        18.24000
     2007.87405       -15.03584        17.28907
     2007.87679        -2.63343        17.69020
     2007.87949       -12.22309        18.95969
     2007.88222        -7.95267        16.56702
     2007.88496       -12.92525        20.59020
     2007.88774       -13.56975        18.00168
     2007.89048       -16.00533        18.02527
     2007.89322        -3.54491        17.87662
     2007.89591        -8.05957        15.08988
     2007.89865       -14.34916        18.45945
     2007.90139       -17.68774        15.83789
     2007.90417        -9.21323        19.88939
     2007.90686       -28.49091        19.55904
     2007.90960       -26.95649        21.64024
     2007.91234       -25.77007        20.32592
     2007.91512       -30.92055        21.03381
     2007.91782       -16.44622        24.46944
     2007.92055       -17.32781        25.16082
     2007.92334       -26.58429        20.99606
     2007.92603         8.71703        19.51420
     2007.92876         2.55845        21.38068
     2007.93150         6.57887        20.05456
     2007.93424        -9.26671        23.49019
     2007.93702       -25.16720        20.71998
     2007.93971       -29.64087        24.73136
     2007.94246       -11.67944        21.10460
     2007.94520       -13.79602        22.46847
     2007.94793       -34.91561        22.47319
     2007.95067       -42.05918        21.07628
     2007.95345       -13.65868        21.34528
     2007.95614       -11.84935        21.27213
     2007.95888        -2.20293        19.80916
     2007.96162         4.52349        21.34528
     2007.96436         5.41891        23.18816
     2007.96709         8.72032        22.57701
     2007.96988        21.84884        23.33682
     2007.97257        -4.92184        23.63885
     2007.97531       -13.40241        22.01306
     2007.97809        34.25310        16.74163
     2007.98082        17.72049        16.60241
     2007.98353        17.23185        16.15408
     2007.98603        24.10081        22.63129
     2007.98904         4.06077        17.22772
     2007.99178        26.10019        16.55286
     2007.99452        29.12561        19.10363
     2007.99656        40.78065        24.40573
     2008.00000        14.08845        15.85441
     2008.00267       -16.40426        16.71095
     2008.00547       -17.24571        15.51226
     2008.00821        -6.31329        14.46458
     2008.01095       -14.61787        14.40795
     2008.01368        -0.23645        14.61088
     2008.01642         1.92497        14.25693
     2008.01916        -1.32361        15.07337
     2008.02190        11.36681        14.86100
     2008.02464         1.89923        14.86100
     2008.02737        -0.57835        15.07101
     2008.03011         4.69007        14.91999
     2008.03285       -10.60451        16.89029
     2008.03559       -21.05909        16.33813
     2008.03833        24.10833        15.66563
     2008.04106        21.60775        16.00778
     2008.04380        -4.40184        15.59249
     2008.04654       -23.63542        15.52406
     2008.04928       -15.11500        15.32821
     2008.05201       -25.72358        14.78549
     2008.05475       -16.11816        15.12528
     2008.05748       -14.43876        18.38158
     2008.06023       -16.18732        15.63968
     2008.06297        -2.87390        17.40705
     2008.06570        -9.60148        18.82991
     2008.06845        -6.71605        15.11112
     2008.07118         2.14536        14.73830
     2008.07392         6.60678        14.99078
     2008.07666         8.95920        15.90160
     2008.07939         1.87562        15.16303
     2008.08213         8.44704        15.02853
     2008.08487        -6.44554        15.06629
     2008.08761        -0.59012        14.55661
     2008.09034        -2.08670        14.76425
     2008.09308        -4.32828        15.00730
     2008.09582        12.96514        15.81665
     2008.09856       -14.31445        15.62316
     2008.10130       -13.64003        16.17296
     2008.10403        -8.45361        15.05921
     2008.10677        13.60181        15.35888
     2008.11225        28.18365        16.22723
     2008.11419        30.48549        26.26277
     2008.11771        13.55847        16.16116
     2008.12046        19.69691        16.83837
     2008.12320       -12.09267        17.60054
     2008.12594         0.78375        16.52454
     2008.12867       -16.32883        19.54016
     2008.13141        -2.24241        17.54627
     2008.13415        -8.86299        18.53259
     2008.13687        -9.10361        18.36978
     2008.13963       -16.68515        18.71429
     2008.14236       -16.19873        16.37353
     2008.14510        -3.64831        17.24187
     2008.14783       -17.31191        18.77092
     2008.15058        -9.88847        15.21966
     2008.15331       -19.75506        18.15977
     2008.15606        -8.55162        16.61657
     2008.15879        -7.71522        19.54960
     2008.16153        -5.59180        15.87564
     2008.16427        -2.37938        15.05921
     2008.16700        -3.23496        14.73830
     2008.16974       -19.95754        15.09224
     2008.17248        -6.06812        14.96718
     2008.17522        -7.25570        16.28858
     2008.17796       -14.41328        15.63968
     2008.18069        -8.21186        15.88980
     2008.18343       -17.96544        15.02853
     2008.18617        -0.12002        15.34000
     2008.18891       -13.00460        16.63545
     2008.19164        23.52982        16.01250
     2008.19438       -11.03476        16.03610
     2008.19712        -4.83934        15.40843
     2008.19986         0.78408        14.38199
     2008.20260        -5.95450        14.53773
     2008.20533         5.56092        14.65335
     2008.20807        -7.23667        15.52642
     2008.21081        -7.30125        16.03374
     2008.21355       -11.03483        16.02666
     2008.21629       -21.31541        14.87044
     2008.21902       -23.40399        15.02617
     2008.22176       -24.18657        15.35416
     2008.22450       -21.49515        15.21966
     2008.22724         8.27727        15.61372
     2008.22997        -1.20031        16.79826
     2008.23267         8.30303        16.37825
     2008.23545         2.82253        15.98183
     2008.23819        -8.52305        15.12764
     2008.24093        -4.05963        14.38671
     2008.24366       -12.82521        14.64863
     2008.24640       -10.97379        14.45042
     2008.24914       -18.29637        15.14180
     2008.25188       -22.24895        16.19655
     2008.25463       -11.19951        16.74871
     2008.25735       -12.27311        16.96108
     2008.26009        -3.38569        14.85392
     2008.26283       -16.80928        15.70811
     2008.26557       -15.84086        14.77841
     2008.26830       -26.61144        15.51462
     2008.27104       -23.10002        15.60664
     2008.27378       -35.27460        17.82470
     2008.27655       -22.37412        18.36034
     2008.27926       -15.17476        19.13902
     2008.28199        -5.18634        16.68028
     2008.28473        -1.16792        17.48256
     2008.28690        -8.61463        20.43918
     2008.29021        -6.66208        15.88036
     2008.29295        -6.63366        16.10689
     2008.29568        -4.32324        16.94220
     2008.29842        -9.24682        14.95774
     2008.30116       -17.76240        15.42495
     2008.30390       -12.27598        14.92471
     2008.30663       -16.87556        15.26214
     2008.30937       -17.33514        16.43724
     2008.31211       -15.04372        15.25034
     2008.31485       -16.77030        16.58825
     2008.31759       -10.60788        16.19655
     2008.32032        -8.93947        17.77987
     2008.32306       -18.92205        16.82422
     2008.32580        -9.30963        16.75107
     2008.32854       -11.95121        15.78598
     2008.33128       -11.39879        15.84733
     2008.33401       -19.61337        16.03374
     2008.33675       -10.30095        17.34806
     2008.33949        -9.64853        17.07434
     2008.34223        -6.23711        16.50331
     2008.34450       -14.96160        21.01493
     2008.34967       -12.52038       160.29778
     2008.45175       -22.82431        16.59297
     2008.45449       -15.81389        16.05262
     2008.45723       -15.25547        16.35229
     2008.45996       -16.34005        16.63309
     2008.46270       -19.03763        16.00070
     2008.46544       -18.93921        16.67320
     2008.46818       -14.91179        15.88272
     2008.47092       -17.06537        16.47027
     2008.47365       -14.98195        16.13284
     2008.47639       -19.92353        16.18476
     2008.47913       -13.17312        15.61844
     2008.48187       -15.88470        16.02902
     2008.48460        -3.93228        15.94643
     2008.48734        -9.78086        15.94407
     2008.49008       -16.77944        16.62129
     2008.49282       -21.89702        16.91388
     2008.49556       -14.57060        16.99883
     2008.49829       -13.64218        16.80534
     2008.50103       -15.66276        16.62601
     2008.50377        -8.31334        16.37825
     2008.50651        -5.80692        16.49387
     2008.50924       -12.49350        16.43252
     2008.51198        -5.67108        16.09981
     2008.51472        -9.31666        15.72463
     2008.51746       -15.13024        15.63732
     2008.52020        -7.51682        15.83081
     2008.52293       -15.06940        16.58825
     2008.52567       -11.77198        17.10737
     2008.52841        -3.62056        15.91812
     2008.53115       -35.14914        19.04228
     2008.62697       420.53253     20435.33099
     2008.74587        31.83890        55.09046
     2008.74748       -15.81092        14.59672
     2008.75017       -11.42860        14.14131
     2008.75290        -7.85218        14.20974
     2008.75564        -5.55176        14.29940
     2008.75838       -19.00334        14.08468
     2008.76112        -6.75893        14.00445
     2008.76386       -22.28951        14.17906
     2008.76659        -8.39409        14.37255
     2008.76933       -24.71067        14.28525
     2008.77207       -20.58625        13.90770
     2008.77481       -28.53983        13.86523
     2008.77754       -15.15241        13.86051
     2008.78028       -15.66999        14.11535
     2008.78302       -14.01357        14.69110
     2008.78576       -17.86315        14.04220
     2008.78850       -15.47073        14.26165
     2008.79123       -19.09731        14.57076
     2008.79397       -22.79389        14.17198
     2008.79671       -13.41547        14.44334
     2008.79945       -16.23905        13.98557
     2008.80219        -1.64863        14.20502
     2008.80492        -5.04021        14.10355
     2008.80766       -26.00579        14.09884
     2008.81040       -15.39637        14.09884
     2008.81314       -14.19395        14.33480
     2008.81587       -10.53054        13.94546
     2008.81861       -22.11112        14.17434
     2008.82135       -21.58970        14.01389
     2008.82409       -27.05328        14.24985
     2008.82683       -14.68486        14.32536
     2008.82956        -4.86544        14.06344
     2008.83230       -18.63802        14.35604
     2008.83504       -10.20060        14.27109
     2008.83778       -12.29218        14.29469
     2008.84052         1.23824        14.24277
     2008.84325        16.88666        14.24749
     2008.84599        16.53408        14.04692
     2008.84873       -16.08250        14.75953
     2008.85147       -30.07108        14.77133
     2008.85420       -31.87966        14.74538
     2008.85694        12.14776        14.44570
     2008.85968         2.06318        14.40087
     2008.86242        -2.46540        14.59908
     2008.86516       -18.86198        14.64627
     2008.86789       -28.32656        14.99786
     2008.87063       -18.68515        14.80437
     2008.87337       -21.10073        14.53065
     2008.87611       -20.15831        14.58020
     2008.87885       -17.08689        14.46694
     2008.88158       -17.21747        14.61796
     2008.88432       -31.83005        14.45514
     2008.88706       -24.22163        14.65807
     2008.88980       -18.45921        14.47166
     2008.89253       -30.64779        14.88695
     2008.89527       -31.42337        14.62503
     2008.89801       -19.72495        14.96482
     2008.90075       -20.43153        14.64391
     2008.90349       -22.08411        14.58020
     2008.90622       -16.86169        14.74066
     2008.90896       -10.65627        14.37019
     2008.91170       -20.52585        14.44098
     2008.91444       -12.96043        14.67931
     2008.91718       -15.45601        14.67695
     2008.91991       -16.10059        14.64155
     2008.92265       -16.01417        14.28761
     2008.92539       -27.48376        14.33008
     2008.92813       -15.19334        14.55189
     2008.93086       -17.62092        14.82088
     2008.93360       -32.88750        14.96010
     2008.93634       -26.34408        14.69582
     2008.93908       -39.35766        14.43390
     2008.94182       -32.04424        14.53065
     2008.94455       -24.18682        15.00022
     2008.94729       -27.01140        14.57548
     2008.95003       -14.62498        14.33244
     2008.95277       -14.46456        14.10827
     2008.95551       -26.52414        14.12951
     2008.95824       -31.65372        14.07288
     2008.96098       -26.82330        14.27581
     2008.96372       -25.24088        14.65335
     2008.96646       -29.31046        14.50941
     2008.96919       -24.35404        14.06344
     2008.97193       -29.20362        14.90583
     2008.97467       -25.70220        15.01437
     2008.97741       -26.91778        14.96010
     2008.98015       -24.76937        14.94359
     2008.98288         0.23105        14.56840
     2008.98562        -3.72853        14.51885
     2008.98836       -10.49011        14.94123
     2008.99110         8.91931        16.38768
     2008.99384        15.13973        16.12576
     2008.99657        27.12515        15.35888
     2008.99925        16.83046        16.02666
     2009.01026        21.07525        15.03561
     2009.01574        -1.33991        15.89924
     2009.01733       -10.40775        50.04084
     2009.02121        -8.75307        16.39712
     2009.02395       -12.57565        16.30510
     2009.02669       -42.06823        17.24187
     2009.02943       -39.22281        17.70200
     2009.03216       -25.63739        17.25131
     2009.03490       -38.78798        15.09932
     2009.03764       -32.83956        14.82088
     2009.04038       -32.35614        15.22674
     2009.04312       -37.65272        15.53114
     2009.04585       -37.74130        14.92471
     2009.04859       -34.41488        15.07809
     2009.05130       -37.37652        17.22300
     2009.05407       -37.46804        15.62080
     2009.05681       -29.55762        14.88931
     2009.05954       -27.14220        15.34472
     2009.06228       -29.66878        14.92943
     2009.06502       -33.65136        14.93415
     2009.06776       -30.97294        14.62739
     2009.07049       -27.26252        14.81381
     2009.07323       -22.74910        14.92235
     2009.07597       -13.81868        15.07101
     2009.07871       -11.92826        14.85864
     2009.08145       -27.65084        15.25034
     2009.08418       -35.01342        14.71706
     2009.08692       -29.90500        14.93415
     2009.08966       -23.68259        15.18427
     2009.09240       -26.93317        15.10640
     2009.09514       -23.63675        15.26922
     2009.09787       -12.75033        15.33765
     2009.10061       -17.15791        14.46930
     2009.10335       -19.06549        15.03797
     2009.10609       -22.41107        14.95538
     2009.10882       -19.67265        14.62503
     2009.11156       -18.18123        14.11535
     2009.11430       -14.30181        15.09932
     2009.11704       -26.70939        14.91055
     2009.11978       -29.06197        14.66043
     2009.12251       -16.34255        14.58964
     2009.12525       -21.90713        14.52357
     2009.12799       -20.99371        14.55425
     2009.13073       -25.58829        14.44570
     2009.13347       -36.83587        14.74774
     2009.13620       -27.78345        15.18899
     2009.13894       -25.40603        15.14415
     2009.14168       -27.17261        14.79965
     2009.14442       -20.83419        14.70762
     2009.14715        -4.95678        15.22910
     2009.14989         0.48364        15.22910
     2009.15263       -13.92094        14.89403
     2009.15537       -21.28252        15.01673
     2009.15811       -20.93710        14.46458
     2009.16084       -35.70868        14.75481
     2009.16358       -16.57626        14.96718
     2009.16632       -19.65784        15.22202
     2009.16906       -12.60242        14.98370
     2009.17180        -7.11400        14.72178
     2009.17453       -10.21358        14.18850
     2009.17727       -12.72816        14.76897
     2009.18001       -25.38974        14.50941
     2009.18275       -26.60732        14.14367
     2009.18548       -26.00090        13.86051
     2009.18822       -16.27848        14.11063
     2009.19096       -26.16906        13.91006
     2009.19370       -28.72664        14.16726
     2009.19644       -24.97622        14.59200
     2009.19917       -23.91880        14.54953
     2009.20191       -11.50339        14.25221
     2009.20465       -19.21797        14.56368
     2009.20739        -8.67655        14.37491
     2009.21013       -12.32213        14.40087
     2009.21286       -12.48271        14.54009
     2009.21560        -8.98129        15.03561
     2009.21834       -14.87687        14.65099
     2009.22108        -6.52145        15.13236
     2009.22381         8.85597        14.70762
     2009.22655         5.20839        15.29517
     2009.22929        28.07481        15.12528
     2009.23203        17.79223        14.66279
     2009.23477        22.69765        15.14887
     2009.23750        15.07307        15.43203
     2009.24024        22.61149        15.20079
     2009.24298        17.10791        15.27865
     2009.24572        14.89633        15.41787
     2009.24846        16.80275        14.99314
     2009.25941         1.45542        14.90583
     2009.26214       -38.54216        15.79541
     2009.26488       -32.24674        16.25790
     2009.26762       -32.87632        16.11161
     2009.27036       -22.45890        16.28386
     2009.27310       -33.80748        16.40892
     2009.45756       -45.41934        33.96934
     2009.45877       -28.17694        19.00452
     2009.46201       -21.81353        15.60664
     2009.46475       -37.18111        16.51982
     2009.46748       -32.39769        15.68451
     2009.47022       -42.20627        15.67035
     2009.47296       -20.58085        15.38956
     2009.47570       -16.52644        15.98183
     2009.47843       -37.20902        16.45375
     2009.48117       -24.99860        15.35416
     2009.48391       -33.54818        15.16775
     2009.48665       -31.63576        15.21966
     2009.48939       -32.41534        15.14887
     2009.49212       -29.24392        15.53114
     2009.49486       -26.75850        15.73406
     2009.49760       -24.15507        14.70526
     2009.50034       -26.29466        14.56840
     2009.50308       -28.65724        14.72886
     2009.50581       -18.17782        14.88224
     2009.50855       -32.55340        14.85392
     2009.51129       -30.86698        14.65335
     2009.51403       -18.84256        14.59200
     2009.51676       -20.34814        14.58964
     2009.51950       -27.07972        14.53301
     2009.52224       -31.58530        14.87044
     2009.52498       -25.03988        14.79021
     2009.52772       -23.10146        14.54009
     2009.53045       -36.80505        14.74538
     2009.53319       -30.44963        14.52121
     2009.53593       -29.61221        14.71706
     2009.53867       -27.20879        14.47638
     2009.54141       -18.73337        14.66515
     2009.54414       -18.26495        14.38671
     2009.54688       -22.64453        14.22626
     2009.54962       -23.99511        14.65571
     2009.55236       -33.47269        14.68167
     2009.55509       -19.05927        14.47874
     2009.55783       -15.35285        14.34188
     2009.56057       -17.74143        14.79493
     2009.56331       -14.81501        15.18191
     2009.56605       -20.03859        15.06157
     2009.56878       -29.23417        14.63447
     2009.57152       -15.00375        14.95066
     2009.57426       -20.09033        14.83032
     2009.57700       -13.62991        14.87988
     2009.57974       -10.05249        14.66279
     2009.58248       -15.27107        14.83268
     2009.58521       -20.49065        14.92943
     2009.58795       -24.20324        14.49997
     2009.59069       -12.52782        14.65335
     2009.59342       -25.47040        14.54009
     2009.59616       -13.31798        14.25929
     2009.59890       -12.28956        14.55425
     2009.60164       -21.50914        14.84684
     2009.60438       -26.81572        14.38907
     2009.60711       -17.53330        14.36311
     2009.60985       -21.39888        14.38907
     2009.61259       -23.64246        14.86572
     2009.61533       -21.44504        14.68874
     2009.61807       -28.82562        14.63919
     2009.62080       -20.37820        14.21682
     2009.62354       -21.09178        14.53773
     2009.62628       -11.84836        14.36783
     2009.62902       -19.88294        14.49054
     2009.63175       -18.17552        14.62267
     2009.63449       -17.83410        14.58728
     2009.63723       -19.64468        14.49289
     2009.63997       -23.63026        14.36311
     2009.64271       -17.52885        14.31828
     2009.64544       -20.24143        14.29704
     2009.64818       -10.04401        14.71706
     2009.65092       -14.43359        14.70290
     2009.65366       -19.16117        14.55189
     2009.65639       -29.63475        14.31592
     2009.65913       -22.05433        14.20030
     2009.66187       -16.59991        14.23569
     2009.66461       -15.14149        14.72178
     2009.66735       -14.59206        14.83740
     2009.67008       -13.80665        14.46694
     2009.67282       -17.61523        14.33952
     2009.67556       -21.62081        14.54481
     2009.67830       -25.43939        14.92943
     2009.68104       -17.55697        15.07809
     2009.68377       -28.03555        14.33008
     2009.68651       -12.24713        14.15783
     2009.68925       -15.19971        14.41267
     2009.69199       -22.92729        14.47638
     2009.69472       -22.62787        14.68639
     2009.69746       -18.08846        14.09884
     2009.70020       -13.84804        14.38907
     2009.70294       -16.18962        14.01389
     2009.70568       -19.73220        14.34896
     2009.70841       -28.67378        14.69818
     2009.71115       -22.48636        14.46930
     2009.71389       -17.21194        15.06393
     2009.71663       -22.96952        14.48346
     2009.71937       -21.52910        14.18614
     2009.72210       -25.37368        14.38435
     2009.72484       -24.12426        14.66515
     2009.72758       -28.92384        14.64863
     2009.73032       -18.66242        14.03041
     2009.73305       -21.18300        14.46222
     2009.73579       -17.18958        14.49525
     2009.73853       -18.65316        14.43390
     2009.74127       -13.20574        14.44806
     2009.74401       -21.11132        14.64391
     2009.74674       -18.83090        14.45042
     2009.74949       -29.23948        14.79729
     2009.75222       -33.07207        14.36311
     2009.75496       -22.96865        14.26873
     2009.75770       -23.62823        14.21682
     2009.76043       -21.52281        14.17198
     2009.76317       -20.24939        14.50233
     2009.76591       -15.61997        14.41267
     2009.76865       -23.05155        14.65099
     2009.77138       -13.67413        14.23569
     2009.77412       -19.17671        14.17434
     2009.77686       -17.83229        14.36311
     2009.77960       -17.41887        14.55896
     2009.78234       -10.58545        14.54009
     2009.78507       -10.86603        14.66043
     2009.78781       -26.34961        14.73594
     2009.79055       -14.94719        14.61560
     2009.79329       -17.69377        15.03561
     2009.79603       -21.92635        14.85628
     2009.79876       -16.59293        14.33716
     2009.80150       -16.37351        14.48818
     2009.80424       -19.47109        14.49761
     2009.80698       -15.01468        14.56604
     2009.80971       -23.04726        14.82560
     2009.81245       -10.39084        14.67459
     2009.81519       -13.77942        14.48346
     2009.81793       -13.96800        14.86808
     2009.82067       -17.32758        14.37019
     2009.82340       -23.98316        14.26873
     2009.82614       -18.84774        14.38907
     2009.82888       -22.92432        14.38671
     2009.83162        -7.60890        14.78077
     2009.83436        -6.42147        14.29233
     2009.83709       -21.92906        14.78077
     2009.83983       -21.23764        14.64155
     2009.84257       -20.40422        14.36547
     2009.84531       -10.68480        14.64155
     2009.84804        24.09362        14.65807
     2009.85078         8.85904        14.84212
     2009.85352         4.02446        15.18427
     2009.85626        10.44388        15.63968
     2009.85900        16.85130        15.06157
     2009.86173        18.81371        15.14651
     2009.86447        21.56713        16.13992
     2009.86721        28.08955        15.56417
     2009.87269        31.88639        15.68923
     2009.90006       -17.82441        16.09273
     2009.90280       -46.91699        14.72650
     2009.90554       -48.42557        15.08044
     2009.90828       -35.07715        15.15359
     2009.91102       -38.10473        14.77369
     2009.91375       -29.81331        14.75481
     2009.91650       -38.05189        15.21494
     2009.91923       -32.24848        14.71470
     2009.92197       -31.79506        15.04505
     2009.92470       -33.40764        15.90868
     2009.92739       -30.54733        15.24798
     2009.92961       -30.81093        20.86628
     2010.36550       -31.41110        19.60387
     2010.36818       -24.06479        19.12958
     2010.37009       -41.48801        43.52588
     2010.53525       -22.10409        15.79777
     2010.53798       -28.73367        16.64017
     2010.54066       -29.90336        15.74350
     2010.54352       -13.55472        16.79354
     2010.54620       -26.33841        15.66563
     2010.54893       -23.44299        15.68451
     2010.55167       -27.98057        15.86384
     2010.55441       -13.59415        15.60192
     2010.55715       -17.22073        15.60428
     2010.55983       -15.86742        16.06441
     2010.56268       -21.86878        15.72227
     2010.56536       -15.47747        15.17719
     2010.56810       -14.66205        14.58964
     2010.57084       -19.65163        14.79021
     2010.57357       -19.81021        15.32585
     2010.57631       -16.80779        15.06629
     2010.57899       -23.17649        14.64155
     2010.58185       -15.59084        15.00966
     2010.58453       -25.13254        15.17483
     2010.58726       -14.85512        15.04741
     2010.59000       -20.99770        14.93887
     2010.59274       -15.87028        14.71234
     2010.59548        -9.27086        14.42918
     2010.59816       -13.07355        14.79965
     2010.60101       -13.60391        14.49289
     2010.60369       -13.47960        14.68167
     2010.60643        -9.30118        14.49997
     2010.60917        -9.64876        14.26401
     2010.61190       -14.59034        14.30884
     2010.61464       -19.25192        14.56368
     2010.61732       -17.40062        14.68403
     2010.62018       -13.92897        14.63919
     2010.62286       -11.99266        14.37491
     2010.62559       -12.32524        14.33008
     2010.62833        -7.83082        14.65335
     2010.63107        -6.89440        15.52406
     2010.63381        -9.22899        14.28525
     2010.63649       -10.45068        14.40323
     2010.63934       -12.22003        14.59200
     2010.64202       -13.25873        14.00445
     2010.64476       -15.27031        14.45514
     2010.64750       -10.16689        14.31356
     2010.65023       -11.20147        14.53537
     2010.65297       -21.11205        14.51413
     2010.65565       -10.30374        14.01625
     2010.65851        -8.88510        14.41739
     2010.66119       -15.25979        14.16019
     2010.66392       -13.57337        14.32064
     2010.66666       -17.21095        13.95962
     2010.66940        -7.69253        13.96670
     2010.67214        -7.36011        14.06580
     2010.67482         1.29919        14.56604
     2010.67767        -9.38416        14.85864
     2010.68035       -13.33485        14.11771
     2010.68309       -13.52043        14.20030
     2010.68588       -17.84291        15.03561
     2010.68856       -35.13860        13.91006
     2010.69130       -19.68818        13.92894
     2010.69398       -16.69187        14.73594
     2010.69684       -20.00922        14.65335
     2010.69952       -16.91392        13.89355
     2010.70225        -6.94650        14.14839
     2010.70499        -6.94508        14.11299
     2010.70773       -20.68766        14.41031
     2010.71047       -19.76124        14.44570
     2010.71315       -14.10793        14.53537
     2010.71600       -16.62229        15.17955
     2010.71868       -19.75798        13.92658
     2010.72142       -12.74756        14.27345
     2010.72416       -16.10614        15.38720
     2010.72689       -21.20472        14.47166
     2010.72963       -22.09930        14.34424
     2010.73231       -11.87600        14.73122
     2010.73517        -8.20935        14.95774
     2010.73785       -15.79704        15.19843
     2010.74058       -13.00562        14.41267
     2010.74332        -8.83421        14.12007
     2010.74606       -12.08079        14.02805
     2010.74880       -15.60637        14.20030
     2010.75148       -10.73506        14.48110
     2010.75433       -12.26741        14.52593
     2010.75649       -10.98613        17.67605
     2010.76367        10.54507        40.72499
     2010.76522       -12.36185        14.06108
     2010.76796       -12.52643        14.31592
     2010.77064       -21.37212        14.42683
     2010.77350       -15.43648        14.85628
     2010.77618        -4.04517        13.85107
     2010.77891       -18.13875        14.14839
     2010.78165       -10.54433        14.28761
     2010.78439       -10.02991        14.12715
     2010.78713       -11.49349        14.68403
     2010.78981       -11.95419        14.46458
     2010.79266        -7.26854        14.25221
     2010.79534        -9.88223        13.98085
     2010.80082        -8.60640        14.01861
     2010.80355       -10.31898        14.62267
     2010.80629        -6.06556        14.03277
     2010.80897        -8.40125        14.73830
     2010.81183        10.91840        14.38435
     2010.81451        18.58770        14.50705
     2010.81713        21.39490        15.62316
     2010.82106         7.66868        35.14208
     2010.82272        -3.05704        14.66279
     2010.82546         4.11038        14.11063
     2010.82814        -5.91631        15.08280
     2010.83099       -27.23967        19.09655
     2010.83367       -35.44936        15.59956
     2010.83641       -30.22394        14.19558
     2010.83915       -19.02352        15.34944
     2010.84167       -14.65254        16.17768
     2010.84462        -2.73168        14.20266
     2010.84730       -12.78638        14.51885
     2010.85015        14.01727        14.51885
     2010.85273        25.66836        14.26401
     2010.85557        23.44899        13.98557
     2010.85831        19.72941        14.14131
     2010.86105         4.90983        14.19794
     2010.86379       -11.44575        14.11771
     2010.86647       -23.21044        14.64155
     2010.86932       -24.95680        15.64440
     2010.87200       -14.06049        15.21258
     2010.87474       -17.51507        14.85156
     2010.87748       -28.08765        14.80673
     2010.88021       -15.76423        14.38671
     2010.88295        -9.46681        14.98842
     2010.88563         3.80550        15.41551
     2010.88848         2.46114        15.15831
     2010.89117        12.09145        14.62739
     2010.89390         4.39787        14.48582
     2010.89664       -13.27171        14.92943
     2010.89938       -20.47329        14.76897
     2010.90212       -23.30887        14.77841
     2010.90480       -14.18957        15.05213
     2010.90765        -3.29192        14.19322
     2010.91033       -10.04662        14.03984
     2010.91307       -22.82920        14.58728
     2010.91581        -5.58178        16.06205
     2010.91854        -7.83136        15.60664
     2010.92128        -7.91394        15.35888
     2010.92396       -23.31763        16.00070
     2010.92681       -23.55199        15.65620
     2010.92950       -22.91468        15.30697
     2010.93223       -25.82626        15.16775
     2010.93497       -21.54284        15.02145
     2010.93771       -10.48342        15.24326
     2010.94045        -0.95300        14.86572
     2010.94313        -7.39069        14.69110
     2010.94598       -26.14305        15.71283
     2010.94866       -15.99574        15.45091
     2010.95140         6.07968        16.05026
     2010.95321        24.73226        26.06928
     2011.05917       -19.46300        32.89807
     2011.06091       -19.58354        14.84448
     2011.06364       -26.45714        15.54293
     2011.06639       -10.90670        14.94123
     2011.06913       -26.30428        16.46319
     2011.07186       -29.65586        15.52406
     2011.07460       -18.20045        15.33529
     2011.07734         4.41297        15.83789
     2011.08012         3.60548        15.65856
     2011.08282         8.56881        15.00258
     2011.08555       -17.65977        23.76863
     2011.08829       -22.23135        16.22723
     2011.09103       -40.45093        15.92048
     2011.09377       -25.08151        15.83789
     2011.09645       -18.63820        16.23903
     2011.09930       -30.69656        15.88508
     2011.10198        -9.89225        16.15408
     2011.10472         0.25317        16.03846
     2011.10746       -10.34741        15.75530
     2011.11019       -28.34099        16.26734
     2011.11293       -23.30157        16.09981
     2011.11561       -19.32027        16.67556
     2011.11846        -6.00262        15.94407
     2011.12115       -25.97131        15.93463
     2011.12388        -6.39889        15.01909
     2011.12662         2.10753        14.86808
     2011.12936         0.85194        14.38907
     2011.35660       -34.36224        17.74448
     2011.35934       -48.50782        16.67320
     2011.36208       -40.80440        17.41885
     2011.36481       -29.30798        19.28296
     2011.36755       -46.06156        16.24611
     2011.37029       -46.81714        17.16400
     2011.37303       -18.90972        18.35326
     2011.37577       -19.31530        18.15033
     2011.37850       -26.74888        19.11307
     2011.38124       -27.61046        19.82332
     2011.38398       -32.40104        19.88467
     2011.38672       -42.13962        19.15082
     2011.38945       -23.05920        18.63170
     2011.39219       -25.92178        18.76148
     2011.39493       -41.10136        18.39810
     2011.39767       -28.94794        17.91673
     2011.40041       -36.39852        16.04318
     2011.40314       -36.14110        16.25790
     2011.40588       -24.90069        17.62649
     2011.40862       -26.34727        18.96441
     2011.41136       -31.37185        19.21925
     2011.41410       -32.55343        18.83935
     2011.41683       -53.13001        17.42828
     2011.41957       -57.35859        18.24236
     2011.42231       -23.79517        19.87995
     2011.42505       -20.43575        19.81388
     2011.42778       -22.33433        19.43398
     2011.43052       -27.13191        19.03048
     2011.43326       -31.48349        19.41510
     2011.43600       -30.15107        18.93609
     2011.43874       -31.15465        20.02153
     2011.44147       -20.50323        19.33251
     2011.44421       -24.91781        19.40566
     2011.44695       -26.42139        18.97857
     2011.44969       -20.13197        19.28060
     2011.45243       -40.83155        18.73316
     2011.45516       -35.72413        17.76571
     2011.45790       -27.40871        18.60102
     2011.46064       -31.77930        19.69118
     2011.46338       -30.24488        19.60859
     2011.46611       -27.79346        19.23105
     2011.46885       -31.03404        19.52600
     2011.47159       -20.44562        18.89834
     2011.47433       -26.17720        18.62934
     2011.47707       -26.76778        18.40045
     2011.47980       -19.98336        18.75440
     2011.48254       -17.65394        18.65294
     2011.48528       -29.85452        19.96725
     2011.48802       -14.79110        19.66286
     2011.49076       -14.10068        19.45993
     2011.49349       -32.85726        19.48117
     2011.49897       -18.57842        17.69492
     2011.50171       -17.63200        18.27775
     2011.50444       -27.93358        17.38345
     2011.50718       -21.24716        17.90257
     2011.50992       -18.08774        17.20884
     2011.51266       -13.37632        18.10550
     2011.51540       -17.06191        17.74684
     2011.51813        -5.43449        18.42405
     2011.52087       -20.17407        17.97100
     2011.52361       -20.28365        16.90680
     2011.52635       -17.77023        17.39525
     2011.52908        -8.55181        17.23479
     2011.53182       -25.05339        16.79826
     2011.53456       -30.74897        15.83789
     2011.53730       -19.11555        16.94692
     2011.54004       -30.39213        16.64960
     2011.54277       -22.08271        15.94171
     2011.54551       -21.53829        16.30746
     2011.54825       -26.13687        15.46507
     2011.55099       -16.34245        16.21543
     2011.55373       -19.32903        15.49338
     2011.55646       -17.46261        16.23667
     2011.55920       -12.77519        16.17296
     2011.56194       -17.77577        16.13284
     2011.56468       -22.89835        15.46271
     2011.56741       -11.29793        15.45799
     2011.57015       -21.41652        15.09460
     2011.57282       -22.82124        15.55945
     2011.57563       -15.38168        14.70762
     2011.57837       -19.49726        14.85864
     2011.58110       -16.10784        15.06393
     2011.58384       -22.87742        14.66279
     2011.58658       -21.48400        15.55473
     2011.58932       -15.51158        14.99314
     2011.59206       -18.87416        14.70290
     2011.59479        13.57926        58.15091
     2011.59753       -15.99632        14.74302
     2011.60027       -11.06790        14.62267
     2011.60301       -14.32048        14.63447
     2011.60574       -19.92506        14.79021
     2011.60848       -18.22064        14.80909
     2011.61122       -16.50722        14.27109
     2011.61396       -12.81380        14.74302
     2011.61670        -6.32438        15.07809
     2011.61943       -16.38896        14.43390
     2011.62217        -8.86054        14.64391
     2011.62491       -10.73413        14.73358
     2011.62765       -12.91271        14.51885
     2011.63039       -10.95429        14.86336
     2011.63312        -8.35887        14.32536
     2011.63586       -12.20545        14.54009
     2011.63860       -17.94503        14.98134
     2011.64134       -15.19361        15.04033
     2011.64407        -8.98419        14.70998
     2011.64681       -13.71977        14.50705
     2011.64955       -10.49335        15.30461
     2011.65229       -15.07693        14.39379
     2011.65503        -8.86551        15.15595
     2011.65776       -11.28909        14.72886
     2011.66050       -14.99667        14.88695
     2011.66324       -10.97725        14.91763
     2011.66598       -15.81483        14.85392
     2011.66872        -3.14041        15.35888
     2011.67145       -11.83599        14.72414
     2011.67419        -7.26957        14.98842
     2011.67693       -10.05315        14.47874
     2011.68240        38.72368        14.18850
     2011.68507        36.67095        14.84920
     2011.69338        40.40941        14.10355
     2011.69609        37.80078        14.27817
     2011.69883        39.89220        14.04928
     2011.70157        38.21662        14.06344
     2011.71800        38.21414        14.14603
     2011.72895        39.11582        13.70714
     2011.74264        51.80291        13.82040
     2011.74538        40.40433        14.19322
     2011.74811        47.30375        14.11771
     2011.75085        61.93217        14.04928
     2011.75359        52.98359        13.84399
     2011.75633        59.05101        13.80624
     2011.76180        58.35385        13.68354
     2011.76728        45.09869        14.18850
     2011.77002        55.00511        14.34896
     2011.77549        64.51195        14.19086
     2011.77823        53.42037        14.16726
     2011.78097        47.94379        14.19322
     2011.78371        51.33721        14.45042
     2011.78644        52.09863        14.03984
     2011.78918        43.53305        14.10591
     2011.79192        36.29746        14.21446
     2011.79466        33.65588        14.33008
     2011.79739        45.43630        14.07288
     2011.80013        43.43772        14.23805
     2011.80287        55.12814        14.02805
     2011.80561        53.96056        14.09176
     2011.80835        49.93498        14.06108
     2011.81108        52.17740        14.37491
     2011.81382        33.89482        14.29469
     2011.81656        42.52324        13.97141
     2011.81930        49.45466        13.85579
     2011.82203        41.13408        13.95726
     2011.82477        47.21850        14.20266
     2011.82751        51.03092        14.02333
     2011.83025        58.33034        13.93602
     2011.83299        45.27076        13.75433
     2011.83572        35.67918        14.06816
     2011.83846        46.46260        13.86523
     2011.84120        46.57402        13.84635
     2011.84394        55.80244        14.17198
     2011.84668        49.71285        14.09884
     2011.84941        42.26327        14.02805
     2011.85215        38.96369        13.77321
     2011.85489        45.96211        14.40323
     2011.85763        44.65153        14.40087
     2011.86036        49.29495        14.01625
     2011.86310        61.16437        14.07288
     2011.89869        71.71383        15.31641
     2011.90417        53.68066        14.23333
     2011.90691        61.90308        13.74961
     2011.90965        42.30850        13.85343
     2011.91238        50.72192        14.45042
     2011.91512        39.79134        13.91478
     2011.91786        39.85276        14.58964
     2011.92060        34.72118        14.13895
     2011.92334        22.07460        14.30176
     2011.92607        31.60102        14.36311
     2011.92881        38.14844        14.36547
     2011.93155        45.78486        14.31828
     2011.93429        36.18928        14.44334
     2011.93702        38.80070        13.75669
     2011.93976        41.93612        14.04456
     2011.94250        43.02754        14.09412
     2011.94524        42.53396        14.01861
     2011.94798        44.41638        14.03513
     2011.95071        42.03280        14.65099
     2011.95345        53.55522        14.24041
     2011.95619        41.22963        14.42918
     2011.95893        42.29005        14.25457
     2011.96167        55.55047        14.45042
     2011.96440        39.47889        14.54953
     2011.96714        52.41531        14.06816
     2011.96988        62.45273        13.82040
     2011.97262        39.82615        14.00209
     2011.97535        38.70857        13.81804
     2011.97809        40.31799        14.10827
     2011.98083        42.19941        14.11771
     2012.00273        47.44777        14.28289
     2012.00821        50.49061        15.21730
     2012.01095        68.49302        15.62080
     2012.01368        63.39244        15.38484
     2012.01642        63.84986        15.12764
     2012.01916        61.31328        15.43203
     2012.02190        47.33570        15.86856
     2012.02464        33.37212        14.61796
     2012.02737        30.93154        13.66938
     2012.03011        38.53296        13.86051
     2012.03285        37.03738        13.67174
     2012.03559        41.62180        14.13895
     2012.03833        50.99522        13.54668
     2012.04106        46.00064        13.29892
     2012.04380        54.27706        13.61039
     2012.05201        50.14932        17.39289
     2012.05475        69.10474        18.16921
     2012.05749        67.26316        18.80631
     2012.06297        31.02900        19.41038
     2012.06570        56.06542        19.39622
     2012.06844        64.44683        20.34716
     2012.07118        38.13725        18.93137
     2012.07392        11.78967        17.89549
     2012.07666        21.03709        18.79215
     2012.07939        67.91251        19.64634
     2012.08213        53.07093        19.60859
     2012.18891        53.76429        14.40087
     2012.59411        96.56038        13.98321
     2012.59685        95.47880        13.89591
     2012.59958        94.72222        13.84635
     2012.60232        99.94464        14.42447
     2012.60506        91.79706        13.89355
     2012.60904        81.77894        63.75741
     2012.61054        99.32090        14.38199
     2012.61327        98.47632        14.35368
     2012.61601       100.44374        14.16255
     2012.61875       102.75315        14.80201
     2012.62149       108.70657        14.53537
     2012.62423       105.23399        14.38435
     2012.62696       100.10041        14.21210
     2012.62970        94.53283        14.19086
     2012.63244        93.70125        14.17670
     2012.63518       103.55067        14.21918
     2012.63791       103.49809        14.43626
     2012.64065        95.61351        14.18614
     2012.64339        96.44393        14.16019
     2012.64613       100.86835        14.25929
     2012.64887        96.44577        14.00917
     2012.65160       102.51519        13.78028
     2012.65434       110.02761        13.83220
     2012.65708       110.03003        14.28525
     2012.65982        91.40345        14.32536
     2012.66256        93.31187        14.08940
     2012.66529       102.39029        14.43862
     2012.66803        93.85671        14.22862
     2012.67077        97.04813        14.42211
     2012.67351        97.46854        14.05400
     2012.67624        97.38496        13.87467
     2012.67898       105.20538        13.94782
     2012.68172       107.70780        13.81096
     2012.68446       100.56522        13.71185
     2012.68720       102.60864        14.23333
     2012.68993       105.70006        14.44570
     2012.69267       115.57348        14.53773
     2012.69541        98.32490        14.13659
     2012.69815        94.48932        14.51649
     2012.70089        98.04274        13.82040
     2012.70362        94.74716        13.79680
     2012.70636       101.54258        14.20030
     2012.70910        96.76300        13.93130
     2012.71184        99.12342        13.81332
     2012.71457       107.64284        13.70950
     2012.71731       108.39726        13.91242
     2012.72005       103.08968        13.74961
     2012.72279       103.39510        13.94310
     2012.72553       101.54552        13.94546
     2012.72826        94.75993        13.89827
     2012.73100        96.47335        14.36547
     2012.73374       100.20777        14.15311
     2012.73648        98.52219        13.76613
     2012.73921        99.98461        13.92658
     2012.74195        98.98903        14.07996
     2012.74469        96.04145        13.70714
     2012.74743       102.59187        13.80152
     2012.75017        98.89229        14.49054
     2012.75290       104.69271        13.75197
     2012.75564        94.91413        13.93838
     2012.75838        98.62855        13.77792
     2012.76112        95.55697        13.80388
     2012.76386       101.72539        13.58443
     2012.76659       102.29381        13.71657
     2012.76933       105.67523        13.67174
     2012.77207       100.52565        13.91950
     2012.77481        98.95007        13.62219
     2012.77754       104.07949        13.60331
     2012.78028       108.74991        13.87939
     2012.78302       118.09432        13.72365
     2012.78576       106.60374        13.75905
     2012.78850       112.24316        13.71185
     2012.79123       125.12758        13.86287
     2012.79397       114.09500        13.43106
     2012.79671        96.19542        13.77792
     2012.79945       123.85684        14.21210
     2012.80219       123.14826        13.66702
     2012.80492       119.62668        13.70006
     2012.80766       116.67610        13.74725
     2012.81040       124.36952        14.22626
     2012.81314       138.36694        14.91055
     2012.81587       130.53936        14.12007
     2012.81861       126.39778        15.49810
     2012.82135       149.48620        15.26686
     2012.82409       109.07662        15.08044
     2012.82683       110.15304        14.72886
     2012.82956       104.34146        14.55189
     2012.83230       110.68888        14.24749
     2012.83504       113.59430        15.02617
     2012.83778       108.71971        14.36311
     2012.84052       106.95413        14.64155
     2012.84325       107.61155        14.62503
     2012.84599       110.58097        14.84448
     2012.84873        91.65439        14.63211
     2012.85147       113.02681        14.62267
     2012.85420        96.23823        14.68167
     2012.85694        91.46465        14.42683
     2012.85968        93.35507        14.43390
     2012.86242        94.77249        14.09412
     2012.86516       127.02491        14.06816
     2012.86789       129.11733        14.64391
     2012.87063       128.52375        14.34660
     2012.87337        96.39017        14.98842
     2012.87611        96.49859        14.94123
     2012.87885       124.49901        14.64863
     2012.88158       135.27143        14.28761
     2012.88706       138.94827        15.94643
     2012.89253       144.07410        15.62788
     2012.89527       125.22652        15.48158
     2012.89801       115.94094        15.09224
     2012.90075        98.25336        15.31641
     2012.90349        92.00078        15.31405
     2012.90622        93.30220        15.24090
     2012.90896        97.25362        15.92284
     2012.91170       129.77104        15.73406
     2012.91444       110.06046        15.74114
     2012.91718       126.97588        17.02007
     2012.91991       108.49430        16.87613
     2012.92265       100.43072        17.00355
     2012.92539       110.25714        18.39338
     2012.92813       121.52056        18.40989
     2012.93086       132.34798        17.56278
     2012.93634       146.68182        16.42308
     2012.93908       143.98724        16.59533
     2013.06076        76.74409        83.44859
     2013.06228        86.70411        17.59346
     2013.06502       130.76053        28.93388
     2013.06776       113.13695        17.52739
     2013.09362        92.96615        80.12150
     2013.09514        92.88615        17.36929
     2013.11285        91.44221       148.57459
     2013.11430        87.27808        21.12584
     2013.11704       121.65250        18.66237
     2013.11978       128.00492        21.23202
     2013.12251       127.52434        18.29427
     2013.12525        83.26076        16.81242
     2013.12799        92.54818        16.95400
     2013.13073       104.35960        16.11633
     2013.13347        88.69102        16.22723
     2013.13620       101.39544        15.49102
     2013.13894        95.34186        15.87092
     2013.14168        99.43128        15.77182
     2013.14442       112.55670        16.28150
     2013.14715       125.52412        16.52454
     2013.14989       110.72154        16.55994
     2013.15263        92.02996        16.55758
     2013.15537        91.67638        16.30510
     2013.15811        85.16480        16.00306
     2013.16084        80.20622        16.66612
     2013.17017       116.10768        42.98788
     2013.17180        94.87389        17.12389
     2013.17453        87.00731        17.02243
     2013.17727        96.25273        16.65668
     2013.18001        95.46115        16.00306
     2013.18275        91.01257        16.32161
     2013.18548        87.84299        16.62601
     2013.18822        86.88941        16.55994
     2013.19096        99.14583        17.40469
     2013.19370       116.45525        17.81998
     2013.19644        93.04667        17.91909
     2013.19917        97.39909        17.30794
     2013.20191       109.39351        17.92145
     2013.20465       104.57393        17.84594
     2013.20739       104.85635        16.53162
     2013.21013       123.19077        15.32821
     2013.21286       102.93319        15.49338
     2013.21560       133.88161        17.27491
     2013.23312       109.99629        40.28374
     2013.23477        80.07354        17.46604
     2013.23750        85.36196        17.90493
     2013.24024        78.63338        17.66661
     2013.24298        83.34580        18.40517
     2013.24572        85.68122        18.11730
     2013.24846        84.38564        17.92853
     2013.25119        96.12406        18.44057
     2013.25393        81.59648        17.63357
     2013.25667        87.54890        18.20932
     2013.25941       111.87032        17.38817
     2013.26214       109.59174        16.83837
     2013.26488       100.69716        16.13048
     2013.26762       100.31758        15.46978
     2013.27036       101.19300        15.58305
     2013.27310       101.18142        18.95497
     2013.27583        98.05284        17.74212
     2013.27857        73.71925        18.16213
     2013.28131        96.62967        16.95400
     2013.28405       104.59409        15.77418
     2013.28679        86.29951        15.42495
     2013.28952        83.57093        14.75246
     2013.29226        74.75935        16.18711
     2013.31690        87.63113        17.48492
     2013.31964        73.19155        17.07906
     2013.32238        91.83597        15.88272
     2013.32512        96.78939        17.04366
     2013.32777       107.31165        15.88272
     2013.33059        86.49323        16.51510
     2013.33333        72.08665        17.32918
     2013.33607        75.28606        16.93040
     2013.33880        81.23348        16.78646
     2013.34154        86.26990        17.30558
     2013.34428        79.43032        18.17629
     2013.34702        86.36574        17.27491
     2013.34976        86.78216        18.00876
     2013.35249        74.81458        18.87238
     2013.35523        77.01700        18.65058
     2013.35797        76.22942        17.56514
     2013.36071        86.14784        16.51039
     2013.36344        93.88426        17.29614
     2013.36618        88.98668        17.24659
     2013.36892        81.04710        16.74635
     2013.37166        85.97052        17.21120
     2013.37440        88.08594        16.45611
     2013.37713        84.22936        15.75530
     2013.37987        87.45778        17.15693
     2013.38261        73.04320        17.25839
     2013.38535        79.92162        17.23715
     2013.38809        85.46504        15.14887
     2013.39082        84.12245        15.34472
     2013.39356        89.98587        15.89924
     2013.39630        88.10129        17.40233
     2013.39904        91.04571        18.61282
     2013.40177       105.85313        18.57979
     2013.40451       123.92955        17.76335
     2013.40725        91.79197        17.97336
     2013.40999        88.76439        17.47784
     2013.41273        87.72281        17.65481
     2013.41546        84.26323        18.64822
     2013.41820        87.99365        17.65953
     2013.42094        88.73707        17.24895
     2013.42368        82.18849        18.49012
     2013.42642        88.54091        17.58402
     2013.42915        89.07433        18.19989
     2013.43189        97.76975        17.96392
     2013.43463        82.35417        17.45188
     2013.43737        88.63559        18.02055
     2013.44010        87.84101        16.54578
     2013.44284        82.64643        16.59533
     2013.44558        87.02584        17.06726
     2013.44832        88.17526        16.71331
     2013.45106        96.73568        16.29094
     2013.45379        81.56810        16.11397
     2013.45653        84.50652        18.11494
     2013.45927        83.65694        17.62177
     2013.46201        94.87636        17.98988
     2013.46475        85.29478        16.40656
     2013.46748        95.88720        17.04130
     2013.47022        99.01862        16.89737
     2013.47296        89.34604        17.75155
     2013.47570        84.93946        17.22536
     2013.47843        97.63388        16.93748
     2013.48117       104.62530        16.94692
     2013.48391        92.69372        16.72983
     2013.48665        95.73814        15.44855
     2013.48939        77.00356        15.76710
     2013.49212        86.17298        15.63968
     2013.49486        80.55440        15.28337
     2013.49760        81.44782        15.91104
     2013.50034        90.32923        14.56368
     2013.50308        85.47065        15.16775
     2013.50581        89.46207        14.71942
     2013.50855        85.47149        14.51413
     2013.51129        83.79991        14.24749
     2013.51509       102.06044        33.41955
     2013.51676        87.32375        14.72650
     2013.51950        85.88617        14.46930
     2013.52224        87.06059        14.42918
     2013.52498        89.10501        14.65571
     2013.52772        89.70543        14.53773
     2013.53045        81.23385        14.21682
     2013.53319        80.75427        14.43626
     2013.53593        88.84169        14.55661
     2013.53867        86.07711        14.62975
     2013.54141        80.94753        14.62975
     2013.54414        89.66095        14.60144
     2013.54688        83.59437        14.58728
     2013.54962        90.01479        14.11063
     2013.55236        87.90221        14.07052
     2013.55509        83.58862        14.19794
     2013.55783        90.40904        14.07760
     2013.56057        89.09546        14.46458
     2013.56331        93.60388        14.68403
     2013.56605        87.45530        13.94310
     2013.56878        89.69372        14.25221
     2013.57152        87.78914        14.22154
     2013.57426        90.08756        13.90299
     2013.57700        93.01698        14.17906
     2013.57974        89.96140        14.01861
     2013.58247        93.20082        14.17198
     2013.58521        92.50524        14.01861
     2013.58795        90.73266        13.98321
     2013.59069        91.51908        14.16491
     2013.59342        93.07150        14.00681
     2013.59616        93.01992        14.08468
     2013.59890        89.96734        13.92422
     2013.60164        94.73176        14.12951
     2013.60438        94.87318        13.83456
     2013.60711        95.50160        13.94074
     2013.60985        98.39501        13.83928
     2013.61259        96.01043        14.10355
     2013.61533        98.08085        14.29469
     2013.61807        96.31227        14.28525
     2013.62080       101.89969        14.09648
     2013.62354        90.83711        13.97613
     2013.62628        94.29253        14.29704
     2013.62902        89.66095        13.94782
     2013.63175        89.80337        13.66702
     2013.63449        94.40279        14.04692
     2013.63723       100.11821        13.60803
     2013.63997       103.70063        13.84871
     2013.64271       100.93205        13.93602
     2013.64544       102.49647        13.76141
     2013.64818        94.37789        13.73545
     2013.65092       105.76931        13.69534
     2013.65366       106.43973        13.82276
     2013.65639        96.51315        13.49241
     2013.65913        99.23857        14.17670
     2013.66187       112.63199        14.15783
     2013.66461        91.22540        13.50185
     2013.66735        97.59282        13.59859
     2013.67008       102.40524        13.54196
     2013.67282       100.56066        14.40323
     2013.67556        98.94308        13.99737
     2013.67830       101.92350        13.66938
     2013.68104       114.09592        13.71657
     2013.68377        98.70334        13.42162
     2013.68651        89.43776        13.33431
     2013.68925        97.63818        13.64343
     2013.69199       102.48460        13.74253
     2013.69472        95.96102        13.71893
     2013.69746        95.63544        13.68590
     2013.70020       101.16686        13.63399
     2013.70294        94.77128        13.99265
     2013.70568       100.16570        14.19794
     2013.70841       109.69212        14.02097
     2013.71115       101.48954        13.65286
     2013.71389       110.26696        13.86759
     2013.71663        90.58038        13.68354
     2013.71937        97.02879        13.90299
     2013.72210       115.65621        13.78264
     2013.72484       115.96763        13.90770
     2013.72758       121.56105        13.91478
     2013.73027       107.89439        13.75905
     2013.73579       104.56831        13.33667
     2013.73853        98.63073        13.56084
     2013.74127       109.48615        13.74253
     2013.74401       118.88857        13.97141
     2013.74674       115.69599        14.09176
     2013.74948       113.21341        13.77085
     2013.75496       107.81325        13.68354
     2013.76043        86.62509        14.26873
     2013.76317        94.73351        14.15075
     2013.76591       104.45193        15.20315
     2013.76865       125.49035        15.02145
     2013.77138       132.01177        14.91291
     2013.77412       104.34919        14.88931
     2013.77960        97.22302        14.80437
     2013.78380       104.71335        56.81772
     2013.78781        82.67328        14.95774
     2013.79055        94.10570        14.75953
     2013.79329        88.49812        15.18899
     2013.79603        88.54754        15.14180
     2013.80150        89.99038        15.24798
     2013.80424        93.61580        15.25742
     2013.80698        92.75522        14.80909
     2013.80971        95.79364        14.88459
     2013.81245        96.10106        14.75717
     2013.81519        89.63448        14.51177
     2013.81672        68.54751        49.47452
     2013.82067       102.75932        14.98134
     2013.82340       118.35774        14.58492
     2013.82614        97.33516        14.95774
     2013.82888        95.66358        14.80909
     2013.83039       100.23356        44.68918
     2013.83436        95.95241        15.16067
     2013.83709       104.09583        14.26165
     2013.84132        98.88021        49.46273
     2013.84531       118.68509        15.42259
     2013.84804       123.29951        15.34236
     2013.85626       108.10077        14.45986
     2013.86173        85.33461        14.35604
     2013.87816       130.50213        14.79493
     2013.88911       113.47980        15.85205
     2013.89459        84.99164        14.83976
     2013.89733        94.05706        14.97190
     2013.90006        87.67748        15.08044
     2013.90280        81.96690        15.23854
     2013.90554        96.75132        14.68167
     2013.90828        92.87274        14.71942
     2013.91375        97.56958        14.79965
     2013.91649       106.40000        14.87044
     2013.91923       111.09042        14.95774
     2013.92197       111.83784        14.54245
     2013.92362       115.96910        36.56967
     2013.93018        96.71410        14.90347
     2013.93566        93.61694        14.79965
     2013.93729        95.57217        36.34550
     2013.94113       101.37577        15.03797
     2013.94387        94.22319        15.24090
     2013.94661        93.74561        15.27158
     2013.95482       102.07787        14.97662
     2013.95756        87.99829        15.37068
     2013.96030        90.92571        14.99314
     2013.96196       107.91801        32.94998
     2013.96851       104.55197        15.23854
     2013.97125       153.76839        17.71380
     2013.97558       148.91996        50.97525
     2013.97831       155.72137        52.93375
     2013.98220       115.81507        16.21543
     2013.98494        82.72649        15.34472
     2013.98767        77.54191        15.31877
     2013.99041        79.74133        15.54293
     2013.99315        80.62875        15.94643
     2013.99863        95.90958        15.75058
     2014.00297        87.38418        39.51921
     2014.01505        78.73110        15.71283
     2014.01779       104.83552        15.15123
     2014.02053       135.71494        14.98370
     2014.04243       117.46530        17.87898
     2014.04517       104.60172        18.09370
     2014.04791        86.43914        16.34049
     2014.05065        86.13055        16.09509
     2014.05338        84.87397        16.12104
     2014.05612        80.81939        16.33105
     2014.05886       100.58181        16.32397
     2014.06160        94.93023        16.25554
     2014.06433        81.35865        16.85961
     2014.06707        83.63807        16.88321
     2014.06981        89.48749        16.21307
     2014.07255        88.40791        16.29330
     2014.07529        98.44633        16.66140
     2014.07802       108.10975        16.57410
     2014.08076       118.60317        15.04269
     2014.08350       122.96459        15.13708
     2014.08624       123.78101        16.20835
     2014.08898       107.76643        16.65668
     2014.09171       103.25985        16.59769
     2014.09445        97.23027        15.74586
     2014.09719        95.20669        16.34993
     2014.09993        98.94511        15.83789
     2014.10266        98.79353        15.39192
     2014.10540       117.52194        15.16067
     2014.10814       118.61336        15.94171
     2014.11088       121.24178        17.21120
     2014.11362       126.97020        17.56278
     2014.11635       145.90462        16.07385
     2014.16115       105.84030        38.72873
     2014.16290        90.02975        16.54814
     2014.18588       130.44226        53.81154
     2014.18754        90.19353        15.40843
     2014.19301        83.50237        16.83366
     2014.19575        81.15179        15.11820
     2014.19849        99.61721        15.36596
     2014.33692        68.16122        50.70390
     2014.38740        73.97315        17.01063
     2014.39014        79.63257        17.73976
     2014.39288        88.84599        18.37450
     2014.39561        70.95541        16.91388
     2014.39835        90.58183        18.01347
     2014.40109        74.07725        17.32682
     2014.40383        79.24067        16.43960
     2014.40657        82.88109        17.28199
     2014.40930        66.15751        17.12153
     2014.41204        70.00593        17.62885
     2014.41478        70.48635        17.85302
     2014.41752        71.70477        17.12861
     2014.42026        76.81919        18.38158
     2014.42299        74.35461        18.78508
     2014.42573        74.86903        17.38109
     2014.42847        76.99245        16.88321
     2014.43121        81.55887        18.57035
     2014.43394        77.51129        17.52739
     2014.43668        81.60170        17.48963
     2014.43942        80.43012        17.53683
     2014.44216        76.52654        17.88605
     2014.44490        80.19796        18.76148
     2014.44763       101.17738        18.15741
     2014.45037        86.47080        17.24187
     2014.45311        90.28922        18.43113
     2014.45585        87.01364        15.96295
     2014.45859        85.90906        15.84733
     2014.46132        82.57548        16.75579
     2014.46406        80.35690        17.40233
     2014.46680        92.13432        17.58402
     2014.46954        85.59274        18.71193
     2014.47227        84.32916        17.98516
     2014.47501        71.59358        16.56466
     2014.47775        88.17700        17.15457
     2014.48049        77.41742        16.97759
     2014.48323        90.20284        17.93325
     2014.48596       100.48226        16.71331
     2014.48870        98.53468        17.24659
     2014.49144       107.90609        17.17580
     2014.49418        77.76651        16.58117
     2014.49692        74.47993        17.10737
     2014.49965        76.74735        16.50803
     2014.50239        71.29677        16.19655
     2014.50513        83.48119        16.48915
     2014.50787        74.87061        15.52170
     2014.51060        73.20103        15.35888
     2014.51334        82.44245        16.18476
     2014.51608        83.62587        15.44619
     2014.51882        78.80729        15.16303
     2014.52156        81.15071        15.11348
     2014.52429        83.51113        14.92235
     2014.52703        85.58555        15.22438
     2014.52977        72.76997        14.82088
     2014.53251        78.76439        14.26401
     2014.53525        73.73681        15.05213
     2014.53798        85.85123        14.29233
     2014.54072        87.13865        14.44806
     2014.54346        85.76907        14.59436
     2014.54620        91.05448        14.33952
     2014.54893        91.23690        14.01861
     2014.55167        83.43932        14.14603
     2014.55441        90.46574        14.10120
     2014.55715        83.89716        14.28761
     2014.55989        99.11258        14.12243
     2014.56262        86.31800        14.03984
     2014.56536        81.36142        14.08704
     2014.56810        78.27584        13.91950
     2014.57084        83.83726        14.02097
     2014.57357        83.28768        14.41031
     2014.57631        84.82110        13.97613
     2014.57905        89.05552        14.46694
     2014.58179        90.10894        14.46222
     2014.58354        83.18640        27.05797
     2014.58726        86.08178        14.38435
     2014.59000        95.80520        13.92186
     2014.59274        82.44062        13.71657
     2014.59548        93.89104        14.08940
     2014.59822        86.07946        14.18614
     2014.60095        83.55888        14.40323
     2014.60369        91.11829        14.12479
     2014.60643        83.81771        13.86995
     2014.60917        87.98013        13.94074
     2014.61190        86.61255        14.08704
     2014.61464       100.59997        13.87467
     2014.61738        86.67639        14.26637
     2014.62012        97.37381        14.01389
     2014.62286        86.51623        13.70950
     2014.62559        87.67065        14.03748
     2014.62833        90.51207        14.59200
     2014.63107        90.62349        14.73594
     2014.63381        89.60491        14.69582
     2014.63655        89.12233        14.27109
     2014.63914        78.46646        15.07101
     2014.64108        66.94030        25.43689
     2014.64373        74.13755        28.24722
     2014.64637        77.12278        37.15486
     2014.64900        92.08499        49.44385
     2014.66029        95.98034        24.37978
     2014.66295       114.52659        27.21606
     2014.66560       101.45884        28.90556
     2014.66824        75.04307        35.01230
     2014.67088       126.59129        59.05229
     2014.68217        69.34463        23.91729
     2014.68482        89.17788        26.85268
     2014.68747       103.70113        30.92777
     2014.69011        87.91936        37.25160
     2014.70404        82.22892        26.00085
     2014.70669        87.77218        28.06317
     2014.70934       101.70643        31.09295
     2014.71215        86.41300        29.03770
     2014.72591        92.11122        28.34161
     2014.72856        97.75847        29.88717
     2014.73121       122.82072        35.28838
     2014.73385       103.55895        47.79682
     2014.74880        99.73053        13.85815
     2014.75154        87.32395        14.24985
     2014.75427        87.46837        13.91242
     2014.75701        87.65079        14.02569
     2014.75975        87.45421        13.98085
     2014.76249        91.47863        13.99973
     2014.76522        92.24305        13.98557
     2014.76796        92.95846        13.87703
     2014.77070        87.72688        13.79208
     2014.77344        85.54730        13.93130
     2014.77618       101.65372        14.31356
     2014.77891       106.76414        13.86759
     2014.78165        85.71256        14.09176
     2014.78439       101.01698        14.13895
     2014.78713       114.32940        14.03041
     2014.78987       120.19382        14.24985
     2014.79260        94.49224        14.24041
     2014.79534       103.89366        13.91006
     2014.79808       112.06308        14.36076
     2014.80082       106.01350        14.27109
     2014.82110       107.72665        32.09343
     2014.82272       113.64485        15.07101
     2014.82546       106.28227        21.75350
     2014.83464        95.33845        26.17546
     2014.83641       103.21195        14.65099
     2014.85106        92.23695        25.76724
     2014.85284        84.08447        14.30648
     2014.85557       102.44589        14.96482
     2014.85789       118.68847        17.62413
     2014.85979        76.56823        64.74374
     2014.87368        87.28974        29.99807
     2014.87635        88.11201        44.29748
     2014.87901        80.17528        53.84457
     2014.88166        53.57153       119.76577
     2014.88569       120.68650        14.96954
     2014.90321       108.36418        31.26992
     2014.91476       114.52105        31.50116
     2014.91743        90.12933        33.41955
     2014.92009        74.91360        46.16631
     2014.92275        76.66686        80.18521
     2015.24824       125.16116        35.06894
     2015.25360       113.08878        28.04665
     2015.25530        87.89414        14.97190
     2015.25804        79.05856        15.03089
     2015.26078        92.08198        15.04741
     2015.26351        85.18039        15.48866
     2015.26625        81.87681        15.35652
     2015.26899        86.51923        15.27629
     2015.27173        88.66865        16.07385
     2015.27446        98.20207        15.08988
     2015.27720        98.40849        14.64863
     2015.27994        76.74391        15.18663
     2015.28268        88.82133        15.28573
     2015.28542        86.79475        15.29517
     2015.28815        77.91617        16.10689
     2015.29089        83.04259        16.48679
     2015.29363        83.34701        16.66376
     2015.29637        75.56943        16.24611
     2015.29911        85.76785        16.82658
     2015.30184        85.73327        17.17108
     2015.30458        99.00269        16.22959
     2015.30732        85.22611        16.20835
     2015.31006        88.61753        15.57833
     2015.31279        85.23695        14.82324
     2015.31553        81.95237        15.13236
     2015.31827        87.78378        15.87800
     2015.32101        86.96120        17.07198
     2015.32375        83.67762        16.20127
     2015.32648        75.55204        16.44432
     2015.32922        82.78246        16.61185
     2015.33196        83.87088        16.38061
     2015.33470        75.17830        17.57222
     2015.33744        75.01772        17.10973
     2015.34017        77.59914        16.41836
     2015.34291        75.44856        15.33057
     2015.34565        80.29798        16.18711
     2015.34839        88.63940        16.36409
     2015.35112        74.39582        15.33293
     2015.35386        84.29624        18.49956
     2015.35660        83.84966        15.06865
     2015.35934        89.01308        16.01014
     2015.36208        83.26550        16.90916
     2015.36481        76.23692        16.39712
     2015.36755        87.68634        16.62601
     2015.37029        89.17876        16.13756
     2015.37303        87.29717        16.51039
     2015.37577        76.17059        15.31405
     2015.37850        75.97201        17.87898
     2015.38124        93.44743        17.31030
     2015.38398        80.49485        17.93325
     2015.38672        78.82127        16.56702
     2015.38945        87.71169        16.93276
     2015.39219        76.22111        15.27629
     2015.39493        86.83153        14.89167
     2015.39767        83.63195        16.19183
     2015.40041        83.46237        15.38956
     2015.40314        82.54579        15.71755
     2015.40588        78.04521        15.61372
     2015.40862        82.35663        15.12056
     2015.41136        80.40505        15.22202
     2015.41410        89.20347        15.07809
     2015.41683        95.92189        14.76897
     2015.41957        89.81831        14.23805
     2015.42231        85.97173        14.34896
     2015.42505        81.67115        15.28573
     2015.42778        84.32357        14.91527
     2015.43052        83.14898        15.11820
     2015.43326        81.85040        14.66515
     2015.43600        86.85382        14.66751
     2015.43874        86.28824        14.32064
     2015.44147        86.77466        15.28809
     2015.44421        82.28008        14.64391
     2015.44695        82.49750        14.98134
     2015.44969        83.17992        14.34424
     2015.45243        83.39234        14.83504
     2015.45516        78.29476        14.48346
     2015.45790        83.48518        14.84684
     2015.46064        88.13060        14.75010
     2015.46338        88.10002        14.60380
     2015.46611        89.01344        14.07052
     2015.46885        94.15886        14.29940
     2015.47159        84.99228        14.20502
     2015.47433        81.57670        14.90583
     2015.47707        85.14312        14.50941
     2015.47980        90.94754        14.29704
     2015.48254        89.94396        14.29704
     2015.48528        88.94037        14.33008
     2015.48802        87.59879        14.08468
     2015.49076        93.40521        13.97141
     2015.49349        89.70263        14.18378
     2015.49623        93.70105        14.32300
     2015.49897        88.32447        14.07524
     2015.50171        92.45489        13.79916
     2015.50444        97.30131        13.65050
     2015.50718        88.79673        13.97849
     2015.50992        93.90215        13.74725
     2015.51266        97.31357        13.65286
     2015.51540        94.58799        13.86523
     2015.51813        96.29841        13.71893
     2015.52087        96.08683        13.51129
     2015.52361        96.61525        13.82984
     2015.52635        97.06967        13.76849
     2015.52908        96.18709        13.45937
     2015.53182        96.89051        13.52072
     2015.53456        95.17793        13.56792
     2015.53730        99.58135        13.69534
     2015.54004        94.96076        13.49713
     2015.54277        93.14418        13.56320
     2015.54551        98.24660        13.62691
     2015.54825        96.25002        13.59623
     2015.55099        99.29344        13.61039
     2015.55373        96.96386        13.85107
     2015.55646        98.71628        13.65758
     2015.55920        94.91270        13.37443
     2015.56194       108.26512        13.56084
     2015.56468       103.99954        13.57736
     2015.56741       109.26596        13.60567
     2015.57015        98.70938        13.76613
     2015.57289        96.06080        14.01153
     2015.57563        99.11422        13.61275
     2015.57837        95.12764        13.47117
     2015.58110        95.76806        13.55612
     2015.58384        95.03848        13.78500
     2015.58658        96.88490        13.85579
     2015.58932        92.48332        13.96906
     2015.59206        95.81574        13.80860
     2015.59479        96.75615        13.88883
     2015.59753       103.28357        14.03513
     2015.60027        99.62599        14.28289
     2015.60301       100.01641        14.37491
     2015.60574       103.31783        13.96434
     2015.60848       104.04725        13.83220
     2015.61122        97.15567        13.60095
     2015.61396       109.74809        13.68354
     2015.61670        94.91351        13.74725
     2015.61943       103.36993        13.58915
     2015.62217        98.06735        13.68590
     2015.62491       102.38777        13.59387
     2015.62765       102.69119        13.63635
     2015.63039       104.78161        13.66230
     2015.63312       103.46603        13.88175
     2015.63586       107.32845        13.70242
     2015.63860        98.43487        13.64107
     2015.64134       105.88729        13.48769
     2015.64407        97.22171        13.61275
     2015.64681        96.06513        14.04456
     2015.64955        91.99954        13.61275
     2015.65229        96.81796        13.79916
     2015.65503       104.41738        13.71657
     2015.65776       101.13380        13.82040
     2015.66050       104.88422        13.65522
     2015.66324       108.21864        13.67882
     2015.66598       115.15106        13.86995
     2015.66872       117.16148        13.91714
     2015.67145       102.41990        13.29892
     2015.67419       102.66132        13.39802
     2015.67693       104.35074        13.58207
     2015.67967       104.32816        13.91006
     2015.68240        97.81058        13.57028
     2015.68514        93.83400        13.68826
     2015.68916        71.68595       115.29426
     2015.69062       106.55184        13.47117
     2015.69336       104.84926        13.95726
     2015.69609       105.55268        13.50185
     2015.69883       110.73910        13.64107
     2015.70157       107.57752        13.55848
     2015.70431       106.82393        13.29892
     2015.70705       107.51135        13.21397
     2015.70978       113.16477        13.42634
     2015.71252       113.78119        13.29184
     2015.71526       100.33761        13.38387
     2015.71800       115.53503        13.21633
     2015.72073       119.98345        13.23521
     2015.72347       103.18687        13.20689
     2015.72621       105.31529        13.34139
     2015.72895        97.15771        13.48061
     2015.73169       102.56713        13.57028
     2015.73442       105.78555        13.86523
     2015.73716       104.51297        13.18802
     2015.73990       106.25039        13.41690
     2015.74264       106.48481        13.50421
     2015.74538       106.42023        13.95254
     2015.74811        99.84165        13.97141
     2015.75085        97.54507        13.18802
     2015.75359       106.83149        13.11723
     2015.75633       103.81991        13.07947
     2015.75906       106.36532        13.05824
     2015.76180       102.29674        13.19037
     2015.76454       108.28616        13.37679
     2015.76728       105.16158        13.26352
     2015.77002       107.37100        13.70006
     2015.77275       116.68542        13.13138
     2015.77549       119.64884        13.43814
     2015.77823       110.17026        13.40746
     2015.78097       109.62068        13.08419
     2015.78371       106.14310        13.07239
     2015.78644       110.01952        13.15498
     2015.78918       105.89394        13.06295
     2015.79192       105.74036        13.10779
     2015.79466       113.61378        13.12195
     2015.79739       110.67720        13.14318
     2015.80013       104.45162        13.27768
     2015.80287       104.80104        13.56792
     2015.80561       106.16546        13.37443
     2015.80835       104.10788        13.16206
     2015.81108       101.19730        13.41454
     2015.81382       103.89971        13.37207
     2015.81656       111.79613        13.53252
     2015.81930       102.30855        13.68826
     2015.82203       107.62197        13.79208
     2015.82477       117.75539        13.48769
     2015.82751       111.13281        13.46409
     2015.83025       112.81423        13.69298
     2015.83299       124.67765        13.95018
     2015.83572       129.72107        13.41218
     2015.83846       118.20249        13.22813
     2015.84120       108.41491        13.31072
     2015.84394       108.42833        13.44522
     2015.84668       109.95275        13.97141
     2015.84941       101.51617        13.79680
     2015.85215       138.14759        14.05164
     2016.57055       118.73064        36.28415
     2016.57221        87.41492        13.84635
     2016.57494        81.46034        13.84399
     2016.57768        88.11376        13.69298
     2016.58042        88.69618        13.75433
     2016.58316        87.40660        13.48297
     2016.58590        87.31601        13.50657
     2016.58863        83.46243        13.56792
     2016.59137        87.30785        13.56320
     2016.59411        85.93527        13.69534
     2016.59685        91.31269        13.44522
     2016.59958        89.55911        13.45937
     2016.60232        90.85753        13.26116
     2016.60506        87.28095        13.44050
     2016.60780        84.01837        13.54432
     2016.61054        90.69979        13.47353
     2016.61327        81.96021        13.79916
     2016.61601        89.58963        13.25644
     2016.61875        86.22405        13.50657
     2016.62149        83.39047        13.71893
     2016.62423        89.09689        13.78972
     2016.62696        94.15131        13.55140
     2016.62970        96.23073        13.28240
     2016.63244        89.56915        13.84163
     2016.63518        93.40357        13.26588
     2016.63791        96.61999        13.37207
     2016.64065        96.74340        13.64343
     2016.64339        90.98782        13.71893
     2016.64613        89.70224        13.67646
     2016.64887        86.59766        13.50185
     2016.65160        95.04908        13.58443
     2016.65434        86.01650        13.59623
     2016.65708        85.73292        13.44522
     2016.65982        88.71034        13.44522
     2016.66256        90.86176        13.34611
     2016.66529        93.45718        13.39330
     2016.66803        97.22560        13.50421
     2016.67077       105.68702        13.68590
     2016.67351        95.35344        13.37207
     2016.67624        92.64586        13.28004
     2016.67898        95.76028        13.34847
     2016.68172       107.24270        13.50657
     2016.68446        95.53712        14.05636
     2016.68720        95.29254        14.01389
     2016.68993        91.35196        13.26116
     2016.69267        87.55938        13.43578
     2016.69541        93.27980        13.29184
     2016.69815        93.49921        13.39566
     2016.70089        97.56663        13.33667
     2016.70362        95.25005        13.59859
     2016.70636        95.00347        13.82512
     2016.70910       100.63089        13.95490
     2016.71184        97.05031        13.08655
     2016.71457       104.78673        13.33903
     2016.71731       103.02415        13.16678
     2016.72005        94.06857        13.11959
     2016.72279        99.24399        13.00868
     2016.72553        94.80441        13.29184
     2016.72826       104.13583        13.58443
     2016.73100        91.77125        13.21633
     2016.73374        94.62867        13.34611
     2016.73648        93.52309        13.11251
     2016.73921        97.62251        13.26588
     2016.74195        88.16293        13.19745
     2016.74469        86.99335        13.43342
     2016.74743        88.60577        13.10071
     2016.75017       108.00219        13.28712
     2016.75290       128.58160        13.31072
     2016.75564        90.81002        13.21633
     2016.75838       109.52344        13.47353
     2016.76112       130.61286        14.19558
     2016.76386        96.79328        13.99501
     2016.76659       102.09070        14.50469
     2016.76933        99.03612        14.07288
     2016.77207       100.88254        13.73545
     2016.77481        95.88396        13.76849
     2016.77754        89.45238        13.46409
     2016.78028        86.89480        13.54668
     2016.78302        90.88322        13.84163
     2016.78576       116.52364        13.65050
     2016.79123       113.23748        13.79680
     2016.79397       139.57090        13.93602
     2016.79671       134.12732        14.74066
     2016.79945       118.60574        14.07052
     2016.80219        97.49716        14.19086
     2016.80492        87.71458        13.97377
     2016.80766        86.01299        13.68826
     2016.81040        78.60041        13.92422
     2016.81314        83.50483        14.29469
     2016.81587       100.96725        13.58443
     2016.81861        94.92567        14.39379
     2016.82135        94.38609        13.63163
     2016.82409       118.16451        14.68639
     2016.82683        91.33493        14.46458
     2016.82956        87.36935        14.48110
     2016.83230       123.53677        14.80909
     2016.83504       134.36319        13.78028
     2016.84052       116.79603        14.54245
     2016.84325        83.40845        14.61560
     2016.84599        77.08387        13.97377
     2016.84873       108.47429        14.83976
     2016.85147        96.16571        14.75953
     2016.85420        81.38913        14.60380
     2016.85694        89.20555        14.47874
     2016.85968        84.74597        14.79021
     2016.86242        83.61538        14.73830
     2016.86516        97.15780        13.92658
     2016.86789        85.89022        14.24749
     2016.87063       131.77064        14.59436
     2016.87337       103.81306        14.31120
     2016.87611        98.49448        13.53252
     2016.87885        91.55090        13.36027
     2017.60833       108.00589        40.98455
     2017.60985        89.13691        13.97849
     2017.61259        83.04933        13.59623
     2017.61533        93.39175        14.02805
     2017.61807        92.70217        13.74017
     2017.62080        87.99359        13.55848
     2017.62354        85.47901        13.43106
     2017.62628        90.43643        13.86051
     2017.62902        87.68185        13.86287
     2017.63175        90.50227        13.50893
     2017.63449        84.32568        13.69770
     2017.63723        89.17910        13.46881
     2017.63997        81.72952        13.67410
     2017.64271        89.54094        13.44758
     2017.64544        90.87036        13.27060
     2017.64818        91.23478        13.53488
     2017.65092        88.51620        13.16206
     2017.65366        90.67162        13.09127
     2017.65639        94.81304        13.51129
     2017.65913        88.53046        13.26588
     2017.66187        88.83888        13.35555
     2017.66461        97.52930        13.77792
     2017.66735        94.00772        13.77321
     2017.67008        94.77014        13.46173
     2017.67282        92.66456        13.94310
     2017.67556        91.12298        13.32487
     2017.67830        88.44940        13.28476
     2017.68104        91.13982        13.19509
     2017.68377        93.26924        13.56084
     2017.68651        96.76066        13.93838
     2017.68925        99.00207        13.46409
     2017.69199        90.75649        13.32723
     2017.69472        94.12991        13.54668
     2017.69746        91.66533        13.49949
     2017.70020        96.75975        13.08419
     2017.70294        92.07517        13.46881
     2017.70568        91.19259        13.20689
     2017.70841        94.83701        13.37443
     2017.71115        96.59443        13.44050
     2017.71389       104.45385        13.30364
     2017.71663       112.02427        13.37915
     2017.71937       102.64369        13.43106
     2017.72210        97.04811        13.62455
     2017.72484        89.43053        13.74725
     2017.72758        96.38895        13.65758
     2017.73032        92.48837        13.59623
     2017.73305        91.71279        13.47117
     2017.73579        90.16021        13.55612
     2017.73853        92.37563        13.87467
     2017.74252        94.27053        52.88656
     2017.74401        96.69446        13.59623
     2017.74674        94.31588        13.40746
     2017.74948       112.10330        13.40982
     2017.75222       104.69572        13.35791
     2017.75496        95.39114        13.41218
     2017.75770        92.07756        13.73073
     2017.76043        94.49798        13.21397
     2017.76317        94.23340        13.37915
     2017.76591       105.14682        13.40510
     2017.76865       117.20024        13.12431
     2017.77138        90.36966        13.41218
     2017.77412        89.22108        13.35083
     2017.81349        79.50901        26.01501
     2017.81519        91.05937        14.03984
     2017.81793        87.14679        13.50893
     2017.82067        85.19621        14.12715
     2017.82340        84.85463        13.63163
     2017.82614        90.93505        13.44286
     2017.82888        90.76747        13.72365
     2017.83162        90.55289        13.77792
     2017.83436        98.55931        13.36735
     2017.83709       113.36873        13.67174
     2017.83983       120.41215        13.04880
     2017.84257       123.72057        13.32487
     2017.84531       126.39599        13.70950
     2017.84804       114.99641        13.38858
     2017.85078       109.36183        13.82748
     2017.85352        77.19224        13.54904
     2017.85626        90.01466        13.55848
     2017.85900        90.96708        14.34660
     2017.86173       114.50450        13.95962
     2017.86447       123.73592        14.07524
     2017.86995       132.32376        14.37727
     2017.87269       139.33418        14.37963
     2017.87542       127.65960        14.16019
     2017.87816       134.24502        13.85815
     2017.88090       129.54444        13.97613
     2018.21619        52.45713        87.08715
     2018.21765        80.34504        15.40607
     2018.22039        79.02946        15.55473
     2018.22313        90.03188        14.53301
     2018.24071       108.83468        44.03792
     2018.24120        92.98164        44.97234
     2018.24416        86.13451        30.26943
     2018.24949       132.45305        33.00425
     2018.26248        99.88876        33.54225
     2018.29815        56.08138        45.69910
     2018.29868       101.92343        48.26639
     2018.30141        96.61183        49.02147
     2018.30461        84.33416        21.98003
     2018.55441        95.24964        13.36263
     2018.55715        92.57606        13.77085
     2018.55989        89.94048        14.16962
     2018.56262        90.41290        13.76613
     2018.56536        92.44732        13.74253
     2018.56810        94.58174        13.81568
     2018.57084        93.02615        13.66702
     2018.57357        86.79257        14.10591
     2018.57631        91.63999        14.54245
     2018.57905        99.54041        14.41031
     2018.58179       103.79183        13.75197
     2018.58453       101.31025        14.18378
     2018.58726        97.17267        13.49713
     2018.59000        98.90709        13.41454
     2018.59274        96.60451        13.41218
     2018.59548        95.39293        13.77557
     2018.59822       102.39735        13.44994
     2018.60095        89.12377        13.76141
     2018.60369        99.27319        13.35319
     2018.60643        97.31161        13.80860
     2018.60917       104.62403        13.72837
     2018.61190        94.16945        13.40982
     2018.61464        99.71187        13.28240
     2018.61738       100.88729        13.29420
     2018.62012       104.34671        13.62219
     2018.62286        98.42513        13.96670
     2018.62559        93.10754        13.70950
     2018.62833        94.18996        13.51365
     2018.63107        88.77438        13.55612
     2018.63381       104.59980        14.11063
     2018.63655        97.52822        13.33195
     2018.63928        94.79364        14.28289
     2018.64202        99.39506        14.17670
     2018.64476       103.19348        13.78264
     2018.64750        93.89990        13.56320
     2018.65023        98.35132        13.90770
     2018.65297        99.73274        13.80152
     2018.65571        95.48916        13.55848
     2018.65845       101.67758        13.55376
     2018.66119       101.83400        13.74017
     2018.66392       106.46042        13.47353
     2018.66666        97.97684        13.71893
     2018.66940        93.09426        13.68118
     2018.67214        92.20968        13.63635
     2018.67488        96.67710        13.74961
     2018.67761       100.17352        13.63871
     2018.68035        96.89193        13.91242
     2018.68309        89.07435        13.95962
     2018.68583       104.40677        13.63163
     2018.68856        96.61419        13.57500
     2018.69130        99.88061        13.64343
     2018.69404        94.34603        14.17434
     2018.69678        85.81445        13.69298
     2018.69952        89.81087        13.41926
     2018.70225       102.29329        13.92894
     2018.70499        95.23671        13.70714
     2018.70773        99.06213        14.16726
     2018.71047        93.38955        13.62691
     2018.71321        93.55697        13.62927
     2018.71594        92.78439        13.82276
     2018.71868        85.84281        13.65522
     2018.72142        92.41623        13.50421
     2018.72416        99.18865        13.78736
     2018.72689        93.05207        13.64814
     2018.72963        95.34249        13.64814
     2018.73237        90.44091        13.88647
     2018.73636        98.23781        48.47640
     2018.73785        95.23374        13.89119
     2018.74058        91.79516        13.60803
     2018.74332       100.64158        13.55140
     2018.74606        93.48200        13.61275
     2018.85381        72.15828        24.10606
     2018.85557        78.61478        13.56556
     2018.85831        84.98820        13.56556
     2018.86105        87.61662        13.58207
     2018.86379        89.09004        13.53724
     2018.86653        91.04746        13.52544
     2018.86926        83.23288        14.04692
     2018.87200        86.47730        13.67174
     2018.87474        92.85972        13.81332
     2018.87748        90.61214        14.12243
     2018.88021        87.33456        13.78028
     2018.88295        85.42498        13.93130
     2018.88569        86.28340        14.25929
     2018.88843        87.27282        14.40795
     2018.89117       123.47724        14.42683
     2018.89390       118.36566        14.37727
     2018.89664       107.21108        14.66279
     2018.89938        97.49050        13.93838
     2018.90212        83.15591        13.89119
     2018.90485        97.10733        13.96198
     2018.90759       102.20375        14.05164
     2018.91033       110.83717        14.25221
     2018.91307       106.97759        14.06108
     2018.91581       104.58101        13.90063
     2018.91854       102.89043        14.43862
     2018.92128        97.55085        14.36783
     2018.92402        90.72427        14.20266
     2018.92676        93.61469        13.75197
     2018.92950        89.96111        14.20502
     2018.93223        89.85553        14.37491
     2018.93497        93.66295        14.34424
     2018.93771        84.09737        14.39379
     2018.94045        98.19879        13.59151
     2018.94318        97.49521        13.66230
     2018.94592       126.04563        13.84871
     2018.94866       112.38705        14.46930
     2018.95140        82.84747        14.41503
     2018.95414       104.76989        13.91950
     2018.95687        90.76830        14.41267
     2018.95961       118.99272        14.49997
     2018.96235       119.24414        14.96954
     2018.96509       122.94856        14.67459
     2018.96783       114.73298        15.54529
     2018.97056       112.44840        14.59908
     2018.97330        94.29482        14.09176
     2018.97604       110.07824        15.87800
     2018.97878       112.53566        14.88695
     2018.98151        91.03508        15.34000
     2018.98425        89.58650        15.10404
     2018.98699        91.44092        14.59200
     2018.98973        76.40334        14.39851
     2018.99247       140.06876        17.65009
     2018.99520       133.24618        16.71567
     2018.99794       123.45260        16.42072
     2019.00068       136.24102        15.92755
     2019.00342       144.89344        16.12340
     2019.01163       138.43969        17.98044
     2019.01711       144.70953        17.10029
     2019.01984       126.67695        17.53447
     2019.02532       140.20579        19.81152
     2019.05643        87.44736        29.65829
     2019.05817        86.57383        15.82609
     2019.06197        90.48534        33.70271
     2019.06736        84.19800        30.71068
     2019.06913        81.45450        19.41274
     2019.07186        78.93692        17.91201
     2019.07460        79.35334        16.44432
     2019.07734        83.70676        16.65904
     2019.08008        81.93318        17.09793
     2019.08282        83.52460        17.01299
     2019.08555        88.44302        16.04790
     2019.08829        97.05244        16.43016
     2019.09103        99.23986        15.97475
     2019.09377        93.76528        15.18427
     2019.09650       100.07070        15.91104
     2019.09924        86.67412        15.61844
     2019.10198        78.71054        15.59721
     2019.10472        87.58596        15.48630
     2019.10746        87.27938        13.79444
     2019.11019        85.75580        14.14839
     2019.11293        91.03422        14.12007
     2019.11567        92.42364        14.67459
     2019.11841       107.94406        13.49713
     2019.12115       104.85247        14.84920
     2019.12388       104.89389        14.46222
     2019.12662       104.74031        14.61560
     2019.12936        98.82373        13.36971
     2019.13210        95.64315        14.18142
     2019.13483        89.97257        14.71470
     2019.13757        97.26199        14.52593
     2019.14031       100.95141        14.34188
     2019.19047       100.94370        24.51900
     2019.19233        82.49338        14.73594
     2019.19507        82.77880        15.41315
     2019.19780        75.97322        15.21730
     2019.20054        76.04664        15.50046
     2019.20328        76.19506        15.46743
     2019.20602        75.80348        15.94643
     2019.20876        75.43290        16.63781
     2019.21149        79.85132        15.80957
     2019.21446        91.80218        18.32259
     2019.21697        78.04216        15.88036
     2019.21971        68.46458        16.24847
     2019.22245        84.34700        16.08801
     2019.22518        80.66542        16.12812
     2019.22792        78.85284        18.30371
     2019.23066        82.97126        15.52642
     2019.23340        80.85167        15.75766
     2019.23613        83.20709        16.22251
     2019.23887        82.83451        15.75294
     2019.24161        79.28493        17.07670
     2019.24435        78.57435        16.53870
     2019.24709        76.13577        17.13569
     2019.24982        79.44519        16.19891
     2019.25256       102.93361        17.12389
     2019.25530       105.42203        17.02243
     2019.25804        78.41245        15.85441
     2019.26078        83.13987        15.25034
     2019.27173        97.14555        16.36645
     2019.27547        75.88995        29.16040
     2019.27720        83.21239        15.28101
     2019.28268        80.99823        14.78549
     2019.28542        88.80865        14.34188
     2019.28815        81.94506        15.18899
     2019.29089        69.36048        15.60192
     2019.29363        84.83790        16.01014
     2019.29637        74.22832        16.43724
     2019.29911        81.48274        16.79118
     2019.30184        84.47716        17.28199
     2019.30458        75.44558        16.98467
     2019.30732        69.19500        17.41413
     2019.31006        79.91042        16.22959
     2019.31279        69.95184        16.94456
     2019.31553        81.06326        16.21543
     2019.31827        80.81168        15.25034
     2019.32101        80.67910        15.98183
     2019.32375        64.84052        15.61372
     2019.32648        79.16594        15.57125
     2019.32922        73.93136        16.34993
     2019.33196        79.92678        15.65620
     2019.33470        75.02120        16.96108
     2019.33744        77.21562        15.97239
     2019.34017        77.63004        16.51510
     2019.34291        82.62245        17.10029
     2019.34565        74.62687        17.24423
     2019.34839        75.29229        17.69020
     2019.35112        72.46371        16.70624
     2019.35386        83.54013        16.46319
     2019.35660        77.55855        16.30274
     2019.35934        75.80597        17.32210
     2019.36208        76.96039        16.62365
     2019.36481        86.81381        15.42731
     2019.36755        77.43223        16.96580
     2019.37029        73.27165        15.93463
     2019.37303        75.02007        15.05449
     2019.37577        91.58149        16.29094
     2019.37850        87.18291        15.93463
     2019.38124        73.21033        15.63732
     2019.38398        83.06975        16.49859
     2019.38672        81.15517        16.11397
     2019.38945        79.12559        15.91576
     2019.39219        84.16201        16.61893
     2019.39493        76.96043        15.22202
     2019.39767        78.06584        16.02430
     2019.40041        77.83426        17.04130
     2019.40314        87.00368        16.37825
     2019.40588        90.01710        16.24375
     2019.40862        85.37152        16.01486
     2019.41410        71.73336        16.55522
     2019.41683        89.95578        16.13284
     2019.41957        81.17920        16.91388
     2019.42231        80.08962        15.34472
     2019.42505        84.33704        15.64912
     2019.42778        86.01246        15.06157
     2019.43052        95.04788        14.43862
     2019.43326        82.86630        14.45514
     2019.43600        80.94472        15.09932
     2019.43874        66.82614        16.16824
     2019.44147        76.38756        15.67035
     2019.44421        75.26098        15.60664
     2019.44695        79.09240        14.81617
     2019.44969        86.38982        14.46694
     2019.45243        88.12523        14.44806
     2019.45516        82.75965        14.53065
     2019.45790        87.26807        14.33008
     2019.46064        86.38949        14.35132
     2019.46338        85.53391        15.24326
     2019.46611        97.45333        14.60144
     2019.46885        90.17075        15.56417
     2019.47159        88.52617        14.28053
     2019.47433        89.67159        14.21446
     2019.47707        88.32901        13.85343
     2019.47948        79.90878        15.64912
     2019.48254        85.52085        13.79208
     2019.48528        84.13527        13.47589
     2019.48802        77.04169        13.96670
     2019.49076        79.14311        13.49477
     2019.49349        84.27953        13.41218
     2019.49623        87.53995        13.62691
     2019.49897        83.50237        13.57500
     2019.50171        86.16279        13.24937
     2019.50444        91.78421        13.44286
     2019.50718        87.37362        13.24701
     2019.50992        83.74904        13.27768
     2019.51266        88.64246        13.47825
     2019.51540        85.43888        13.38387
     2019.51813        81.96130        13.88175
     2019.52087        81.29572        13.67174
     2019.52361        83.19614        13.43342
     2019.52635        86.31556        13.50657
     2019.52908        88.11298        13.91006
     2019.53182        89.23040        13.57972
     2019.53456        89.77782        14.14367
     2019.53730        82.03824        13.67882
     2019.54004        81.63566        13.96670
     2019.54277        93.39508        13.73545
     2019.54551        93.79450        14.14839
     2019.54825        88.49992        13.41690
     2019.55373        96.57476        13.90770
     2019.55646        91.76018        13.50657
     2019.55920        89.48860        13.70006
     2019.56194        88.35801        13.44050
     2019.56468        94.29143        13.48061
     2019.56741        88.84285        13.59387
     2019.57015        86.25527        13.27532
     2019.57289        89.01269        13.38622
     2019.57563        92.43211        13.28476
     2019.57837        94.11253        13.61275
     2019.58110        90.70395        13.56792
     2019.58384        84.64237        13.98085
     2019.58658        92.70479        13.34139
     2019.58932       102.06021        13.37207
     2019.59206        91.11363        13.56556
     2019.59479        96.04505        13.50421
     2019.59753        89.68047        14.05164
     2019.60027        89.99389        13.79680
     2019.60301        90.40531        13.33903
     2019.60574        95.97473        13.90299
     2019.60848        81.95615        13.95254
     2019.61122        84.32157        13.41690
     2019.61396        91.12799        13.40510
     2019.61667        90.45936        13.37679
     2019.61943        93.80382        13.19981
     2019.62217        95.12124        13.90770
     2019.62491        98.76466        13.40510
     2019.62765        97.88208        13.43342
     2019.63039        96.80650        13.62691
     2019.63312        96.35592        13.49241
     2019.63860        93.48276        13.78736
     2019.64134        89.47618        13.78500
     2019.64407        98.76860        13.57500
     2019.64681        92.45902        13.44994
     2019.64955        94.24544        13.56084
     2019.65229        96.36686        13.41218
     2019.65503       100.79528        13.64107
     2019.65776        97.01470        14.06108
     2019.66050        94.86612        13.83220
     2019.66324       100.15654        13.64107
     2019.66598        99.03196        13.55140
     2019.66872        91.14738        13.56792
     2019.67693       101.76563        13.76377
     2019.67967       101.28005        13.76849
     2019.68240        88.45547        13.34611
     2019.68514        96.57389        13.70478
     2019.68788        94.17631        13.62691
     2019.69062       101.66673        13.78500
     2019.69336        86.00315        13.44758
     2019.69609        98.55957        13.31780
     2019.69883        96.49199        13.72129
     2019.70157        90.27141        13.44994
     2019.70431        83.98083        14.14603
     2019.70705        84.59925        13.33903
     2019.70978        86.95767        13.46881
     2019.71252        78.82609        13.54668
     2019.71526        90.30151        13.32487
     2019.71800        87.54693        13.98557
     2019.72073        92.64835        13.81804
     2019.72347        90.12477        13.46645
     2019.72621        91.70619        13.25644
     2019.72895        89.87760        13.25409
     2019.73169        94.63102        13.40510
     2019.73442        97.46544        13.61747
     2019.73716       101.64786        13.31780
     2019.73990        94.24628        13.56792
     2019.74264        90.06270        13.28948
     2019.74811        97.02354        13.80388
     2019.75085        95.91396        13.66938
     2019.75359       101.33338        14.05164
     2019.75633       105.95080        13.38858
     2019.75906        94.86822        13.30364
     2019.76180        95.73864        13.45937
     2019.76391       101.79182        18.86766
     2019.76728        96.99848        13.34375
     2019.77002        95.43490        13.19273
     2019.77275        95.23332        13.83692
     2019.77549        96.11374        13.56320
     2019.77823        91.80716        13.24465
     2019.78097        95.13458        13.50185
     2019.78371        95.62499        13.32959
     2019.78644        93.11741        13.97613
     2019.78918        88.86183        15.73406
     2019.79192       109.64425        13.54432
     2019.79466       122.70167        13.48769
     2019.79739       113.83409        13.44758
     2019.80013       121.27451        13.95490
     2019.80287       108.49493        13.92186
     2019.80561        91.52535        13.81096
     2019.80835        90.18377        13.41926
     2019.81108        88.54219        13.47117
     2019.81382        87.49261        13.57972
     2019.81656        89.33903        13.62691
     2019.81930        91.07045        13.61511
     2019.82203        83.90187        13.72837
     2019.82477        87.12429        13.56556
     2019.82751        79.20471        13.86051
     2019.83025        88.82513        14.22390
     2019.83299        92.76655        13.90535
     2019.83572        86.28297        13.81804
     2019.83846        93.06138        13.53488
     2019.84120        91.96180        13.53016
     2019.84394        88.96122        14.13659
     2019.84668        86.32364        13.53488
     2019.84941        89.09606        13.74017
     2019.85215        94.47548        13.90535
     2019.85489        80.35090        13.89591
     2019.85763        82.50932        13.67174
     2019.86036        89.88674        13.45701
     2019.86310        88.56116        13.80152
     2019.86584        97.98058        13.90535
     2019.86858        91.99500        13.70242
     2019.87132        92.09342        15.35652
     2019.87405        96.09284        13.37207
     2019.87679        80.93126        13.96198
     2019.87953        99.47268        15.18663
     2019.88227       107.69010        13.45937
     2019.88501       100.46552        13.45465
     2019.88774       101.76994        13.77085
     2019.89048        97.90736        13.26116
     2019.89322       100.22777        13.32723
     2019.89596        88.91119        13.35791
     2019.89869       100.07861        13.18566
     2019.90143       103.33703        13.38858
     2019.90417       105.24145        13.64578
     2019.90691       101.89887        13.55140
     2019.90965        97.61129        13.38858
     2019.91238        98.57671        15.11112
     2019.91512        93.37213        14.12243
     2019.91786       110.06355        13.28476
     2019.92060        93.87797        13.57972
     2019.92334        96.08739        13.32015
     2019.92607        99.93881        13.50185
     2019.92881        96.08123        13.65994
     2019.93155        97.51165        13.69298
     2019.93429       102.65407        13.50185
     2019.93702        99.62049        13.73309
     2019.93976        86.88791        14.55896
     2019.94250       101.16533        13.96434
     2019.94524       111.60575        13.74489
     2019.94798       111.54616        13.59859
     2019.95071       122.21058        14.09648
     2019.95345       123.06000        13.47589
     2019.95619       122.87442        13.19509
     2019.95893       112.36984        13.46645
     2019.96167       106.93426        13.56792
     2019.96440       103.38268        13.71185
     2019.96714       115.31010        14.21210
     2019.96988       134.88052        14.24041
     2019.97262       130.28394        14.16726
     2019.97535       128.30036        13.91714
     2019.97809       108.12278        14.05400
     2019.98083       126.19620        13.97613
     2019.98357       125.66062        14.36547
     2019.98631       126.47404        13.84635
     2019.98904       120.00146        14.25929
     2019.99178       118.74688        13.78972
     2019.99452       112.35230        13.40510
     2019.99726       106.36772        13.74489
     2020.00000       130.36614        14.30176
     2020.00273       128.19956        14.44806
     2020.00547       123.99297        15.13708
     2020.00821       126.51139        14.95066
     2020.01095       123.62881        14.74302
     2020.01368       117.73023        15.43911
     2020.01642       127.92965        16.03846
     2020.01916       118.22207        15.10876
     2020.02190       107.37349        15.33529
     2020.02464        97.47091        15.03797
     2020.02737       113.86533        14.33244
     2020.03011       120.64375        14.47874
     2020.03285       124.49817        14.53065
     2020.03559       124.89559        13.95254
     2020.03833       129.05401        14.12951
     2020.04106       130.97643        14.17670
     2020.04377       126.77578        14.61560
     2020.20807        86.47202        27.85316
     2020.21355        75.41886        26.98010
     2020.21509       113.82791        53.59681
     2020.32854       100.95248        24.76204
     2020.33128        98.21290        24.78799
     2020.33401        78.47631        26.50581
     2020.33675       108.70073        21.68035
     2020.33949        80.27715        22.49915
     2020.34330        49.74469        86.95737
     2020.34496        90.33099        23.92201
     2020.34770        70.76641        22.49915
     2020.35044        79.08783        24.61810
     2020.35318        89.11625        22.94512
     2020.35592        85.07667        25.59027
     2020.35865        97.89209        23.19052
     2020.36139        94.00651        23.36985
     2020.36413       105.51293        22.58881
     2020.36687        81.36135        22.82006
     2020.36961        93.37677        23.66717
     2020.37234        82.55319        26.11647
     2020.37508        83.76561        15.36124
     2020.37782        83.72503        15.58541
     2020.38056        82.89345        17.10029
     2020.38329        82.29487        16.33577
     2020.38603        75.53729        15.52878
     2020.38877        83.61170        16.20599
     2020.39151        82.78612        16.45375
     2020.39425        70.95854        16.36881
     2020.39698        76.50196        18.73552
     2020.39972        60.70138        16.79118
     2020.40246        78.25380        16.14464
     2020.40520        79.60922        18.22112
     2020.40794        73.63564        18.35326
     2020.41067        77.20006        17.74919
     2020.41341        78.02048        17.69256
     2020.41615        68.08790        16.76759
     2020.41889        76.77332        18.22348
     2020.42162        67.67074        18.12438
     2020.42436        79.26716        17.59346
     2020.42710        89.19558        15.34708
     2020.42984        71.19800        17.45424
     2020.43258        72.81642        15.30461
     2020.43531        77.31684        18.54675
     2020.43805        87.04126        19.96725
     2020.44079        77.96868        16.38061
     2020.44353        76.74210        15.17719
     2020.44626        78.29551        14.49761
     2020.44900        72.51193        16.33577
     2020.45174        72.73835        16.91624
     2020.45448        87.09077        18.08662
     2020.45722        63.47019        17.04838
     2020.45995        76.64661        18.18337
     2020.46269        76.38003        19.11071
     2020.46543        76.79745        15.51226
     2020.46817        78.20487        17.55570
     2020.47091        76.95429        16.13284
     2020.47364        78.93971        17.60054
     2020.47638        74.21013        16.92804
     2020.47912        80.31355        17.06490
     2020.48186        83.33397        17.69020
     2020.48459        75.47239        18.45473
     2020.48733        85.97181        16.22487
     2020.49007        89.93923        16.68736
     2020.49281        93.65865        16.06677
     2020.49555        88.10607        15.59013
     2020.49828        75.49149        16.10689
     2020.50102        72.57790        15.11584
     2020.50376        73.90932        16.34049
     2020.50650        77.35274        15.62316
     2020.50924        80.29316        15.24798
     2020.51197        73.92658        15.84025
     2020.51745        74.35442        16.54814
     2020.52019        87.18084        14.40323
     2020.52292        83.99126        14.57076
     2020.52566        92.36868        14.49054
     2020.52840        98.94510        14.56604
     2020.53114        87.54752        15.08988
     2020.53388        90.52094        15.33529
     2020.53661        83.59136        15.46743
     2020.53935        90.68278        14.82088
     2020.54209        87.93920        14.67459
     2020.54483        84.27662        14.65099
     2020.54757        95.37604        15.26922
     2020.55030        92.56346        15.30225
     2020.55304        88.71688        14.67459
     2020.55578        87.65829        14.88459
     2020.55852        93.50471        14.26165
     2020.56125        84.61513        14.43626
     2020.56399        91.83955        13.76141
     2020.56673        97.07097        14.25929
     2020.56947        97.31839        14.57312
     2020.57221        86.32281        14.79729
     2020.57494        91.67623        14.47402
     2020.57768        88.01765        14.30412
     2020.58042        92.46707        14.64155
     2020.58316        89.94049        14.43154
     2020.58590        95.50691        14.39851
     2020.58863        93.88733        14.35368
     2020.59137        99.07575        14.17906
     2020.59411        98.73517        14.40559
     2020.59685        91.21459        14.63211
     2020.59958        85.18801        14.59908
     2020.60232       104.41743        14.34424
     2020.60506        95.22785        14.21446
     2020.60780       101.67727        14.22626
     2020.61054        99.86568        14.33244
     2020.61327        93.85410        14.48110
     2020.61875        90.18594        13.38151
     2020.62149        94.16836        13.42398
     2020.62423        99.26378        13.58679
     2021.46318       100.37046        36.46820
     2021.46475        90.77457        13.82040
     2021.46748        94.99799        13.91242
     2021.47022        96.18241        14.16726
     2021.47296        96.92983        13.76377
     2021.47570        93.55125        13.78500
     2021.48117        91.46709        13.59859
     2021.48391        92.09751        13.53960
     2021.48665        91.35593        13.91950
     2021.48939        94.41135        13.90299
     2021.49212       103.89576        13.99501
     2021.49486        98.04418        13.53252
     2021.49760       102.03360        13.71893
     2021.50034        99.87402        13.77321
     2021.50308        95.25844        13.61983
     2021.50581        87.83886        13.54196
     2021.50855        95.35628        13.53724
     2021.51129        98.59170        13.40274
     2021.51403        98.40912        13.87939
     2021.51676        99.34254        13.55140
     2021.51950       100.19596        14.03748
     2021.52224        95.88438        13.57736
     2021.52498        98.86780        13.36499
     2021.52772       100.01922        13.36263
     2021.53045       100.04964        13.52544
     2021.53319        97.18106        13.45465
     2021.53593        97.82648        13.66466
     2021.53867       105.26790        14.37963
     2021.54141        99.21532        13.74253
     2021.54414        93.44774        13.76141
     2021.54688        90.39915        13.50421
     2021.54962        94.64557        13.53252
     2021.55236        99.27599        13.46645
     2021.55509        97.75941        13.87231
     2021.55783        93.46883        13.67882
     2021.56057        95.27625        13.52072
     2021.56331        99.27067        13.61511
     2021.56605        96.07609        13.53724
     2021.56878        94.67451        13.43578
     2021.57152        97.01293        13.45701
     2021.57426       100.09335        13.69298
     2021.57700        98.56177        13.81804
     2021.57974        93.11219        13.39094
     2021.58247        90.57961        13.40510
     2021.58521        97.35503        13.69062
     2021.58795       102.30445        13.86759
     2021.59069       101.27587        13.67410
     2021.59342        95.27529        13.52308
     2021.59616        98.66971        13.98321
     2021.59890        93.31013        13.40746
     2021.60164       100.55054        13.78028
     2021.60438        99.72496        13.56084
     2021.60711       100.06538        13.48769
     2021.60985        99.12580        13.37207
     2021.61259        99.42822        13.33667
     2021.61533        95.74464        13.39802
     2021.61807        98.53506        13.46173
     2021.62080        97.15048        13.63871
     2021.62354       102.16690        13.62455
     2021.62628       102.51932        13.53960
     2021.62902       105.73874        13.37915
     2021.63175       100.03616        13.51836
     2021.63449       102.83458        13.62455
     2021.63723       105.25600        14.14603
     2021.63997       102.18342        13.60803
     2021.64271       102.54584        13.54196
     2021.64544        99.43926        13.26824
     2021.64818        98.67468        13.51836
     2021.65092       101.75510        13.52072
     2021.65366        96.73552        13.45465
     2021.65639        99.01393        13.48061
     2021.65913        98.54635        13.30836
     2021.66187       102.52277        13.35319
     2021.66461       101.83219        13.45229
     2021.66735       104.01361        13.58207
     2021.67008       101.07803        13.83220
     2021.67282       108.11045        14.00445
     2021.67556       108.63087        13.88883
     2021.67830       100.44729        13.62219
     2021.68104       106.79671        13.57972
     2021.68377       101.82513        13.67646
     2021.68651       106.27855        13.79444
     2021.68925       103.42897        13.45465
     2021.69199       105.68539        13.24937
     2021.69472       103.42681        13.32015
     2021.69746       105.05523        13.45465
     2021.70020       106.47565        13.41690
     2021.70294       104.44707        13.36027
     2021.70568       108.04949        13.40274
     2021.70841       109.64691        13.32487
     2021.71115       105.99533        13.64814
     2021.71389       111.05474        13.86051
     2021.71663       103.11016        13.44286
     2021.71937       106.88158        13.43814
     2021.72210        99.48300        13.64107
     2021.72484        94.61742        14.30648
     2021.72758       106.47284        13.52780
     2021.73032        98.87426        14.32064
     2021.73305       102.54368        13.30836
     2021.73579       108.95210        13.99973
     2021.73853       112.20552        14.59200
     2021.74127       105.84894        13.55140
     2021.74401        99.60536        13.50657
     2021.74674       108.26578        13.73781
     2021.74948       106.29020        13.55848
     2021.75222       101.32462        13.61275
     2021.75496       108.31904        13.77321
     2021.75770       101.87146        13.53488
     2021.76043       108.84188        15.14415
     2021.76317       114.38430        13.53960
     2021.76591       103.41972        13.57500
     2021.76865       100.86713        13.75905
     2021.77138       102.61555        13.68118
     2021.77412       109.00497        13.75433
     2021.77686       106.18739        13.34375
     2021.77958       108.76377        13.90299
     2021.78234       109.62023        14.19322
     2021.78507       116.84665        13.68118
     2021.78781       104.71207        13.79680
     2021.79055       101.46349        16.88085
     2021.79329       101.40791        15.56417
     2021.79603       106.06233        13.74253
     2021.79876       103.30275        13.90535
     2021.80150       121.04317        14.44098
     2021.80424       119.08759        14.21918
     2021.80698       120.13001        13.58679
     2021.80971       140.27543        13.81568
     2021.82340       125.35852        14.27345
     2021.82614       106.45394        14.34188
     2021.82888       102.11636        14.09176
     2021.83162        98.04778        14.44098
     2021.83436        95.43520        15.29989
     2021.83709       103.17762        14.36783
     2021.83983       102.54004        14.85628
     2021.84257        96.24046        14.83268
     2021.84531       111.18588        14.20738
     2021.84804       111.96330        13.86051
     2021.85078       116.74372        13.72601
     2021.85352       112.05414        13.76377
     2021.85626       130.75156        14.05164
     2021.85900       138.24398        13.76613
     2021.86173       108.23440        14.33008
     2021.86447        88.51582        14.34188
     2021.86721        92.61824        14.26637
     2021.86995       102.99166        14.47166
     2021.87269       103.78508        14.63919
     2021.87542       107.78350        13.91714
     2021.87816        98.31591        13.58915
     2021.88090        95.76033        14.43154
     2021.88364       134.38375        13.69062
     2021.88637       123.87917        14.00681
     2021.88911       105.63959        13.71893
     2021.89185        88.04701        14.31592
     2021.89459       135.24943        13.65286
     2021.89733       129.79785        13.61275
     2021.90006       102.68127        14.75481
     2021.90280        90.54769        14.59200
     2021.90554        96.69311        14.47874
     2021.90828       105.06153        14.22390
     2021.91102        97.45495        13.86287
     2021.91375        91.12037        13.72837
     2021.91649        95.31479        13.83928
     2021.91923        98.30421        14.27581
     2021.92197        89.06963        14.99786
     2021.92470       105.53205        14.34896
     2021.92744       127.52347        14.57312
     2021.93018       113.05589        14.70054
     2021.93292       119.91430        14.69818
     2021.93566       123.90572        14.73358
     2021.93839       106.53114        14.42918
     2021.94113       113.64856        14.93887
     2021.94387       133.78098        14.31120
     2021.94661       123.04640        14.58728
     2021.94935       133.19482        14.56132
     2021.95208       134.83424        14.81381
     2021.95482       124.58166        14.50469
     2021.95756       125.63908        14.66987
     2021.96030       118.22250        15.01437
     2021.96303       122.46192        15.29045
     2021.96577       129.93034        16.35937
     2021.96851       126.95976        16.35229
     2021.97125       123.73418        16.22723
     2021.97399       131.36160        15.92284
     2021.97672       125.47802        15.62080
     2021.97946       137.56944        15.55237
     2021.98220       136.28986        15.46743
     2021.98494       131.88428        15.00258
     2021.98767       133.11669        14.60380
     2021.99041       126.23811        14.56368
     2021.99315       120.31053        14.76661
     2021.99589       137.14995        15.54529
     2021.99863       115.30737        15.78598
     2022.00136       117.46879        15.08280
     2022.00410       120.30021        15.35416
     2022.00684       114.93563        15.14180
     2022.00958       131.04805        16.28622
     2022.01232       106.77347        15.30697
     2022.01505       124.15589        16.13992
     2022.01779       101.47531        17.34098
     2022.02053       104.03773        16.25554
     2022.02327        68.76115        17.18052
     2022.02600       121.59957        15.46743
     2022.03148        85.86741        15.77890
     2022.03422        98.31083        15.11820
     2022.03696        89.59925        14.24277
     2022.03969        76.11567        14.21210
     2022.04243        84.81708        14.20738
     2022.04517        93.34150        14.17434
     2022.04791        95.92492        14.04692
     2022.05065       105.26334        14.27109
     2022.05338        86.30476        14.69818
     2022.05612        88.47418        14.82088
     2022.09171       124.07464        13.92186
     2022.09445       114.29606        14.16962
     2022.09719       118.21048        14.27817
     2022.09993        83.21189        14.29469
     2022.10266        86.84031        14.37019
     2022.11088        89.99757        14.25221
     2022.49418        87.25930        14.45986
     2022.49692        87.18172        14.13423
     2022.49965        83.97814        14.53537
     2022.50239        72.53256        14.36547
     2022.50513        86.74898        14.39379
     2022.50787        99.77140        14.66987
     2022.51060        80.93582        14.64627
     2022.51334        84.30324        13.94782
     2022.51608        81.25266        14.20266
     2022.51882        82.26208        13.79680
     2022.52156        79.82350        13.86051
     2022.52429        91.60692        13.98085
     2022.52703        92.77334        13.75905
     2022.52977        91.01076        13.84871
     2022.53251        84.85518        13.88647
     2022.53525        80.62060        13.99029
     2022.53798        86.35902        14.39143
     2022.54072        85.11043        13.62455
     2022.54346        87.08785        13.64814
     2022.54620        83.26927        13.69298
     2022.54893        90.01669        13.70006
     2022.55167        91.68111        13.51600
     2022.55441        90.13953        13.39566
     2022.55715        92.92995        13.36027
     2022.55989        91.83237        13.45701
     2022.56262        88.64279        13.46173
     2022.56536        79.15521        13.95490
     2022.56810        87.75063        13.48061
     2022.57084        88.81905        13.52544
     2022.57357        96.11347        13.78736
     2022.57631        79.86389        13.48533
     2022.57905        82.04931        13.56084
     2022.58179        93.09373        13.43106
     2022.58453        97.42015        13.82040
     2022.58726        89.22457        13.61747
     2022.59000        99.53399        13.78500
     2022.59274        85.65141        13.71893
     2022.59548        91.72782        13.35083
     2022.59822        83.29924        13.41454
     2022.60095        83.03566        13.72129
     2022.60369        90.39108        14.54717
     2022.60643        98.32350        14.49289
     2022.60917       100.53092        13.95018
     2022.61190        99.32534        13.63163
     2022.61464       100.84676        14.15311
     2022.61738       101.82418        13.19509
     2022.62012        90.33260        13.24701
     2022.62286        96.07202        13.09599
     2022.62559        99.14044        13.16914
     2022.62833        95.97086        13.83692
     2022.63107        97.34328        13.26352
     2022.63381       103.52670        13.15734
     2022.63655        97.53312        13.21397
     2022.63928       101.41954        13.15026
     2022.64202        97.43696        14.37019
     2022.64476       100.68338        14.36311
     2022.64750       104.41380        13.65758
     2022.65023       101.59821        13.53252
     2022.65297       105.76663        13.63163
     2022.65571       103.27005        13.43814
     2022.65845       104.41447        13.12431
     2022.66119       103.56789        13.08419
     2022.66392       100.62831        13.11723
     2022.66666       104.78873        13.02992
     2022.66940       107.05415        14.43154
     2022.67214       101.07157        13.35555
     2022.67488       110.41399        13.34375
     2022.67761       109.06741        13.20217
     2022.68035       103.67083        13.10071
     2022.68309       104.93125        13.63399
     2022.68583       101.18467        13.79444
     2022.68856       105.11909        13.33195
     2022.69130       102.88851        13.55612
     2022.69404       103.25093        13.51365
     2022.69678       108.07635        13.71893
     2022.69952       102.41077        13.32251
     2022.70225       102.81019        13.60567
     2022.70499       103.84860        13.56084
     2022.70773       103.94002        13.38622
     2022.71047       101.39544        13.08655
     2022.71321       111.74786        13.40274
     2022.71594       110.11628        13.12431
     2022.71868       108.43270        13.19745
     2022.72142       108.47612        13.19745
     2022.72416       102.60454        13.45465
     2022.72689       108.96896        13.42870
     2022.72963       108.31538        13.15970
     2022.73237       109.69580        13.14790
     2022.73511       101.90822        13.91714
     2022.73785       104.40264        13.48769
     2022.74058       105.71706        19.09419
     2022.74332       107.68548        14.19558
     2022.74606       107.51090        13.33667
     2022.74880       103.17132        13.37207
