# ================= DQRFIT RESULTS ================
# INPUT FILE: series/WIFC.rad
# OUTPUT: LDETRENDED
# FILTER FUNCTION: f(t)
# f(t)=+line(t)+annual(t)
# line(t)=+P 1+P 2*t
# annual(t)=+P 3*sin(2*pi*t+P 4)
# heav(t)=(t<0?0:1)
# TOTAL OBSERVATIONS MTOT= 1098
# INITIAL TIME INTERVAL= 2008.1477 - 2004.6297 =  3.5180
# TOTAL OBSERVATIONS AFTER PREFILTER M= 1090
# TIME-SPAN= 2008.1477 - 2004.6297 =  3.5180
# OBSERVATIONS: USED M=  1090 REJECTED MTOT-M=     8 %USED=   99.2714
# N=  4 PARAMETERS
# MAXSIG= 175.00000
# MAXRES=  52.41080
# SCALE FACTOR FOR LENGTHS: SCL=  10.00000
# SCALE FACTOR FOR SIGMAS: SCLSIG=   1.00000
# CHI^2=   4550.405 DOF=  1086 CHI^2/DOF=   4.19006
# RMS=     13.267 SDEV=     13.273 MEAN=   -0.03786
#  P #       PARAMETER +-    SIGMA %error PARAMETER NAME
# P 1 =     12338.41626 +-  711.252   5.76 YZERO                              
# P 2 =        -6.12110 +-    0.355   5.79 SLOPE                              
# P 3 =        13.89207 +-    0.559   4.02 ANNUAL AMPLITUDE                   
# P 4 =        -2.69220 +-    0.051   1.89 ANNUAL PHASE                       
#       T            LDETRENDED       SIG_OBS
     2004.62971         2.96452        12.33295
     2004.63245        -1.09872        12.13235
     2004.63519       -10.43396        12.21832
     2004.63792        -0.33921        12.24698
     2004.64066        -7.61345        12.65228
     2004.64340        -0.39769        12.43940
     2004.64614       -13.23193        12.78943
     2004.64888        -0.86317        12.66252
     2004.65161       -10.36841        12.27769
     2004.65435       -13.24365        12.30839
     2004.65709       -17.19789        12.54379
     2004.65983        -4.29914        12.55198
     2004.66256        -7.45638        12.61134
     2004.66530         3.67638        12.30225
     2004.66804        -5.52586        12.56426
     2004.67078        -3.36810        12.42507
     2004.67352         2.02766        12.50081
     2004.67625        -8.46358        12.26950
     2004.67899        -7.89383        12.19581
     2004.68173        -3.85607        12.28792
     2004.68447         1.93769        12.22651
     2004.68721        -2.25155        12.33500
     2004.68994        -3.36779        12.08527
     2004.69268        -6.62203        12.13031
     2004.69542        -2.39027        12.72597
     2004.69816         1.06149        12.56631
     2004.70089         6.22824        12.68299
     2004.70468        -3.48957        27.25327
     2004.70637       -10.87324        12.79147
     2004.70911        -4.87748        12.21832
     2004.71185         4.80628        12.35547
     2004.71458        -7.74396        12.30020
     2004.71732        -2.97420        12.22037
     2004.72006       -22.50445        12.07504
     2004.72280        -6.23669        12.12826
     2004.72554       -16.93193        12.15692
     2004.72827        -3.29017        12.43735
     2004.73101         1.83459        12.25108
     2004.73375        -2.57265        12.39027
     2004.73649        -0.38989        11.99316
     2004.73922        -0.73013        12.08527
     2004.74196         3.45362        12.24698
     2004.74470        -3.16162        12.19171
     2004.74744        -0.34986        12.02182
     2004.75018        -3.65610        11.99521
     2004.75291        -3.34034        11.89900
     2004.75565        -0.46658        11.96245
     2004.75839         1.87218        12.05252
     2004.76113         0.04193        12.05047
     2004.76387        -0.85431        12.22037
     2004.76660        -0.58555        12.38618
     2004.76934        -2.66579        12.48443
     2004.77208       -13.25203        12.53765
     2004.77482        -6.48027        12.26950
     2004.77755         1.76649        12.29202
     2004.78029         2.92525        12.28178
     2004.78303         6.90900        12.27359
     2004.78577         0.89476        11.85601
     2004.78851         9.82652        12.27155
     2004.79124        -2.83472        11.91537
     2004.79398        -2.30496        12.12212
     2004.79672        -4.89520        12.18967
     2004.79946        12.59056        12.47829
     2004.80220         8.29331        12.19376
     2004.80493        -5.49293        12.15896
     2004.80767        -4.21717        12.29202
     2004.81041        -9.17941        12.09346
     2004.81315        -5.41965        12.43326
     2004.81588         9.10511        12.11393
     2004.81862        -2.44613        12.50285
     2004.82136        -2.82137        12.61134
     2004.82410         1.65438        11.88672
     2004.82684       -11.50786        12.13849
     2004.82957         8.84990        12.58473
     2004.83231       -12.30834        12.05047
     2004.83505        -8.66858        12.34524
     2004.83779        -2.32282        12.09551
     2004.84052       -14.96506        12.43735
     2004.84326        -0.59831        11.91537
     2004.84600         4.24645        11.92356
     2004.84874         2.48621        12.04433
     2004.85148         2.81697        12.01568
     2004.85421         8.10373        13.25204
     2004.85695         3.66749        12.25108
     2004.85969         0.10325        12.10370
     2004.86243       -12.66499        11.95427
     2004.86517        -1.15624        12.00953
     2004.86790        -2.69048        11.83554
     2004.87064       -10.46572        11.94608
     2004.87338         2.49904        11.88672
     2004.87612       -13.32320        12.15692
     2004.87885        -9.00844        12.00749
     2004.88159        -4.84668        12.45373
     2004.88433        -5.98293        12.66866
     2004.88707         2.42683        12.11188
     2004.88981        -7.48841        12.15692
     2004.89254         0.85335        12.15896
     2004.89528         4.18611        12.12826
     2004.89802         4.07587        12.52332
     2004.90076        11.48163        12.25517
     2004.90350         7.02438        12.08323
     2004.90623        -4.38086        12.14668
     2004.90897        -8.14610        11.98702
     2004.91171        -1.07134        11.81098
     2004.91445        -8.39258        11.75571
     2004.91718       -18.93082        12.19786
     2004.91992         2.36694        12.11393
     2004.92266        -1.72930        12.09551
     2004.92540        10.45445        11.92766
     2004.92814         8.13321        11.66360
     2004.93087         7.47497        11.70249
     2004.93361         8.50173        12.12416
     2004.93635         6.05849        12.20195
     2004.93909        -3.13475        12.25926
     2004.94183         4.93101        12.44963
     2004.94456        -8.94824        12.04024
     2004.94730        -2.33448        12.15692
     2004.95004         4.35428        11.98292
     2004.95278       -18.57396        12.10574
     2004.95551       -12.26720        11.90105
     2004.95825        -4.09444        12.08527
     2004.96099        -2.54168        11.78437
     2004.96373        -7.53192        11.68407
     2004.96647         1.86583        11.78232
     2004.96920        -3.09841        11.57967
     2004.97194        -0.59865        11.97678
     2004.97468        -0.15389        12.00339
     2004.97742         1.46387        11.86829
     2004.98016        -1.16337        11.76799
     2004.98289        10.87839        11.60628
     2004.98563         6.19414        11.95017
     2004.98837         1.22590        11.97678
     2004.99111         4.38066        12.21423
     2004.99384        -8.54758        12.07299
     2004.99658       -21.85582        12.12416
     2004.99932       -21.20206        12.08323
     2005.00480       -32.20254        12.05252
     2005.00753       -27.15079        12.04433
     2005.01027         4.39097        12.04638
     2005.01301         0.76773        12.04433
     2005.01575         1.03649        11.97883
     2005.01849         6.22825        12.11802
     2005.02122        -4.88699        12.00749
     2005.02396       -15.12523        12.02386
     2005.02670       -30.14048        12.07504
     2005.02944       -12.30472        12.22651
     2005.03217       -18.64696        11.99725
     2005.03491       -27.67320        12.18762
     2005.03765       -10.87344        12.18148
     2005.04039       -12.85968        12.15692
     2005.04313       -38.54792        12.38618
     2005.04586       -16.80516        12.16920
     2005.04860       -15.68641        12.65842
     2005.05134       -22.40265        12.52332
     2005.05408        -5.12789        12.51513
     2005.05682        -2.66013        12.29816
     2005.05955        -5.40237        12.20400
     2005.06229        -3.50761        12.06276
     2005.06503        -9.64085        12.23061
     2005.06777        -8.87110        12.30225
     2005.07050        -9.05434        12.36775
     2005.07324        -7.93958        12.14259
     2005.07598         1.08718        12.21014
     2005.07872        -6.70206        11.73934
     2005.08146        -9.38730        11.77209
     2005.08419       -16.25854        11.98292
     2005.08693        -3.25578        11.83554
     2005.08967       -10.88503        11.80279
     2005.09241        -3.83827        12.02182
     2005.09515        -0.61551        11.75776
     2005.09788       -13.60575        11.66155
     2005.10062        -8.24199        11.74343
     2005.10336        -9.93723        11.91537
     2005.10610        -7.17947        12.08527
     2005.10880         0.68308        11.94813
     2005.11157        -3.35896        11.67588
     2005.11431         5.31980        11.84782
     2005.11705        -1.13744        11.70249
     2005.11979       -10.58468        11.90105
     2005.12252        -7.86892        11.85806
     2005.12526        -2.44016        11.70863
     2005.12800        -3.01340        11.74752
     2005.13074        -0.29365        12.03205
     2005.13347         1.59611        11.81098
     2005.13621        -5.20113        11.81712
     2005.13895        -7.46237        11.79460
     2005.14169        -5.00661        11.91742
     2005.14443         0.03315        11.80893
     2005.14716        -1.62209        12.09551
     2005.14990         1.51066        11.99521
     2005.15264        -2.48958        11.95427
     2005.15538         4.44318        11.97883
     2005.15812        -3.62906        12.06480
     2005.16085         4.73370        12.00749
     2005.16359        -0.96554        12.05661
     2005.16633         1.81422        12.02182
     2005.16907         2.20198        11.92766
     2005.17180         3.58173        11.94813
     2005.17454         0.24549        12.01772
     2005.17728         1.52625        12.16715
     2005.18002         1.36201        12.11393
     2005.18276         1.35977        12.21423
     2005.18549        -8.67747        12.18148
     2005.18823        -3.28571        12.06276
     2005.19097         5.97904        12.07094
     2005.19371         2.04780        12.35342
     2005.19645        -6.01944        12.16715
     2005.19918        -3.21668        12.01363
     2005.20192         1.76608        12.37799
     2005.20466         5.39984        12.25722
     2005.20740         9.66060        12.31044
     2005.21013        -5.59764        12.15487
     2005.21287        -9.61589        12.44758
     2005.21561        11.46887        12.28997
     2005.21835         5.89763        12.17124
     2005.22109        -0.29061        12.20604
     2005.22382         4.41415        12.28587
     2005.22656        -1.21009        12.05661
     2005.22930        -2.26533        12.08323
     2005.23204         1.57042        12.27564
     2005.23478         6.22418        12.28587
     2005.23751         4.70294        12.07913
     2005.24025        12.99570        12.43940
     2005.24299        11.79146        12.30634
     2005.24573         7.99322        12.59906
     2005.24846        -0.74202        12.27769
     2005.25120        -5.50426        12.18148
     2005.25394         8.20549        12.62158
     2005.25668        -3.41175        12.81194
     2005.25942         6.32101        12.39846
     2005.26215        11.08677        12.48852
     2005.26489        12.41653        12.22856
     2005.26763        11.80729        12.21628
     2005.27037         6.06705        12.30225
     2005.27311         1.76580        12.45782
     2005.27584         1.91356        12.36366
     2005.27858         3.87132        12.29816
     2005.28132         7.57808        12.54175
     2005.28406        -3.27816        12.53560
     2005.28679         5.89060        12.30020
     2005.28953         7.11736        12.16510
     2005.29227        -8.73589        12.16306
     2005.29501         4.88087        12.18967
     2005.29775        -3.61637        12.40050
     2005.30048        11.79139        12.21628
     2005.30322        -4.62985        12.28997
     2005.30596         5.07091        12.12416
     2005.30870        -2.56933        12.24698
     2005.31144         0.39443        12.38208
     2005.31417        -5.93282        12.26541
     2005.31691         6.91494        12.23470
     2005.31965        -0.70930        12.07913
     2005.32239         1.07646        12.51309
     2005.32512         3.98122        12.32067
     2005.32786         5.40298        12.16306
     2005.33060         2.06074        12.13849
     2005.33334         9.31549        12.14463
     2005.33608         5.73425        12.47420
     2005.33881         3.87501        12.34524
     2005.34155         6.03077        12.18148
     2005.34429         4.38253        12.27359
     2005.34703         3.96929        12.28383
     2005.34977         1.96205        12.41688
     2005.35250       -20.82419        12.64409
     2005.35524        -5.01344        12.59497
     2005.35798        -0.83368        13.02688
     2005.36072        -6.50392        12.55403
     2005.36345        -0.32716        12.47420
     2005.36619         8.53060        12.60725
     2005.36893        -0.13864        13.14969
     2005.37167        -0.89888        12.59087
     2005.37441         4.40587        12.69731
     2005.37714         6.83563        12.92657
     2005.37988         7.65439        12.48648
     2005.38262         1.62815        12.52128
     2005.38536        -9.26309        12.35957
     2005.38810        -0.80033        12.53151
     2005.39083         2.92343        12.46396
     2005.39357         1.12019        12.41893
     2005.39631         1.17894        12.31658
     2005.39905        -2.82130        12.30225
     2005.40178         2.20746        12.37594
     2005.40452        10.49622        12.68094
     2005.40726         4.13298        13.01050
     2005.41000        -0.36826        12.40050
     2005.41274         0.41450        12.67275
     2005.41547       -14.52275        12.23675
     2005.41821       -11.71299        12.33091
     2005.42095         0.24277        12.32272
     2005.42369         4.62453        12.20809
     2005.42643         6.23829        12.27564
     2005.42916       -10.51495        12.41483
     2005.43190        -3.25519        12.12212
     2005.43464        -8.54443        12.66047
     2005.43738         5.19432        12.51718
     2005.44011         3.23508        12.57245
     2005.44285         6.68684        12.77101
     2005.44559       -12.09340        12.60315
     2005.44833        -1.31564        12.80376
     2005.45107         5.47612        12.41279
     2005.45380        11.02788        12.10984
     2005.45654         8.56463        12.47829
     2005.45928        -1.19761        12.59292
     2005.46202         5.50015        12.26336
     2005.46475        -1.34209        12.52537
     2005.46749         7.40067        12.15282
     2005.47023         7.62943        12.57450
     2005.47297        -5.48581        12.34114
     2005.47571        -0.42505        12.14054
     2005.47844         4.52770        12.18353
     2005.48118         9.12546        12.55198
     2005.48392         4.94222        12.06071
     2005.48666         6.11498        12.14054
     2005.48940         5.15474        12.28383
     2005.49213        -1.34250        12.07094
     2005.49487         3.84726        12.15487
     2005.49761         5.16901        12.14259
     2005.50035         8.90077        12.06071
     2005.50308         9.37753        12.23265
     2005.50582         5.53429        12.13440
     2005.50856         8.24805        12.31863
     2005.51130         1.99081        12.32681
     2005.51404         2.82957        12.23879
     2005.51677        -0.23467        12.16510
     2005.51951         3.41408        12.50285
     2005.52225         9.43384        12.69527
     2005.52499         5.35660        12.25517
     2005.52773         9.02036        11.98907
     2005.53046         5.27912        12.06276
     2005.53320        13.40088        12.02796
     2005.53594        11.07864        12.23879
     2005.53868         6.29439        12.30634
     2005.54141         4.27015        12.29816
     2005.54415         7.01191        13.15583
     2005.54689         7.73667        13.19268
     2005.54963        12.40443        13.46493
     2005.55237         7.88919        13.46288
     2005.55510        18.29795        13.55090
     2005.55784        12.62971        13.29912
     2005.56058        13.04646        13.76992
     2005.56332         9.38822        13.35030
     2005.56606         5.72198        13.18040
     2005.56879        14.02474        13.13741
     2005.57153        10.98550        13.39124
     2005.57427        10.62326        13.04120
     2005.57701        13.35002        13.20701
     2005.57974        15.13177        13.63073
     2005.58248        10.24653        13.54476
     2005.58522         7.78829        13.44036
     2005.58796        14.90805        12.77919
     2005.59070        18.05781        12.95114
     2005.59343         7.57857        13.39738
     2005.59617        10.40433        13.22543
     2005.59891        15.86109        13.54476
     2005.60165         9.02084        13.40556
     2005.60439        22.36860        13.31959
     2005.60712        13.41336        13.25409
     2005.60986        16.09212        13.76174
     2005.61260        13.75188        13.65120
     2005.61534        12.62064        13.42194
     2005.61807        18.05940        13.15788
     2005.62081        12.95715        13.43832
     2005.62355        12.08691        13.76788
     2005.62629        11.78767        13.49358
     2005.62903         5.64143        13.41170
     2005.63176        10.16919        13.32778
     2005.63450        20.20095        13.40147
     2005.63724        23.11771        13.47721
     2005.63998        14.64747        13.53043
     2005.64272        11.14922        13.40966
     2005.64545        16.38098        12.71983
     2005.64819        15.84374        13.18859
     2005.65067        20.30190        13.90093
     2005.66461        18.01526        13.48540
     2005.66735        18.60402        12.82013
     2005.70117        18.88600        25.82244
     2005.70295        16.95591        13.43422
     2005.70569        13.03667        15.08203
     2005.70924        12.05641        27.95129
     2005.71066        10.98111        18.25482
     2005.71390        14.37895        12.82013
     2005.71745        15.52268        21.20040
     2005.71927        21.96580        13.56523
     2005.72302        15.22878        23.85736
     2005.72485         6.80995        13.56523
     2005.72758        13.64371        14.20797
     2005.73032        18.33547        14.19364
     2005.73306        18.81923        13.22952
     2005.73580        21.24199        13.80472
     2005.73854        18.45275        13.35234
     2005.74127        18.07951        13.15174
     2005.74401        25.31727        13.01255
     2005.74675        17.09902        13.24999
     2005.74949        16.65378        13.17630
     2005.75223         8.66757        13.22543
     2005.75496         8.10730        13.53657
     2005.75770        12.08806        13.55704
     2005.76044        22.44982        13.06167
     2005.76318        17.42258        12.89382
     2005.76591        26.36333        13.27661
     2005.76865        24.95809        12.84674
     2005.77139        -0.52915        13.37281
     2005.77413        22.88861        12.96137
     2005.77687        19.15637        13.27251
     2005.77960        15.45413        13.10057
     2005.78234        18.81489        13.34211
     2005.78508        22.62665        13.37895
     2005.78782        16.97640        13.12718
     2005.78960        27.03134        27.82233
     2005.79330        18.35395        12.92043
     2005.79603        22.62168        13.71875
     2005.79877        25.56544        13.26228
     2005.80151        10.87820        14.05036
     2005.80322        24.37370        30.75972
     2005.80797        16.10874        27.88988
     2005.80972        22.97947        12.72597
     2005.81205        11.77773        15.22736
     2005.81520        22.76002        12.85084
     2005.81879        -3.38498        25.76308
     2005.82148        15.40545        28.31565
     2005.82427        24.01153        23.73864
     2005.82615        21.81103        12.85084
     2005.82814        24.19324        19.52189
     2005.83254        26.82716        25.37211
     2005.83436        15.70630        13.31959
     2005.83710        -3.73894        13.28684
     2005.83984        19.29482        12.75668
     2005.84257        18.35258        13.16812
     2005.84532        14.50836        13.16198
     2005.84805       -10.75788        13.38100
     2005.85170       -36.70356        28.97886
     2005.85352       -29.80139        16.70322
     2005.85627        12.10840        12.78943
     2005.85901        10.35716        12.60929
     2005.86276       -14.97886        26.97898
     2005.86447         7.97162        14.01146
     2005.86722         3.52443        12.61748
     2005.87093        -2.83984        24.86856
     2005.87269         8.96792        12.54993
     2005.87543         7.77871        12.22651
     2005.87817         8.41247        11.94608
     2005.88091        13.96823        12.16306
     2005.88365        12.92199        12.14873
     2005.88638        15.91374        12.26950
     2005.88912        13.68250        12.70550
     2005.89186        13.75526        12.29816
     2005.89460        16.80602        12.24698
     2005.89734        17.08278        12.48443
     2005.90007         1.76954        12.54584
     2005.90281         4.04030        12.54789
     2005.90555        -1.83094        12.31453
     2005.90829         0.37181        12.22856
     2005.91102         7.23957        12.17943
     2005.91376        -5.65367        12.16101
     2005.91650        -5.88591        12.33705
     2005.91924        -7.46315        12.44758
     2005.92198        -7.28439        12.30225
     2005.92471       -19.47563        12.35957
     2005.92745        -0.78288        12.22856
     2005.93019         7.84588        12.14668
     2005.93293        13.43664        12.06685
     2005.93567        13.79840        12.14463
     2005.93840        10.98716        12.10984
     2005.94114         4.94092        11.95631
     2005.94388        13.01468        12.03410
     2005.94662        17.50444        12.12007
     2005.94935        14.77719        11.96245
     2005.95209         5.61695        12.17329
     2005.95483         6.57271        12.48034
     2005.95714        13.95585        14.47817
     2005.96024        13.98885        12.32477
     2005.96304        10.58499        11.85192
     2005.96578        18.16575        12.72597
     2005.96799         4.26625        16.30611
     2005.97085         8.98676        27.83666
     2005.97343        16.15456        20.69889
     2005.97594        20.22692        28.86628
     2005.97949        11.82666        13.62254
     2005.98118        10.46101        34.83727
     2005.98438        12.79957        17.23543
     2005.98700         2.69465        28.45075
     2005.99042        -0.90343        12.57450
     2005.99316        -5.26767        12.45373
     2005.99590        11.48209        12.57245
     2005.99864        -8.10315        12.75258
     2006.00411       -15.37363        12.79762
     2006.00685       -14.98387        13.14151
     2006.00959       -16.26612        12.86926
     2006.01233         8.25364        12.65228
     2006.01506         0.35240        12.54379
     2006.01676        10.50276        26.78452
     2006.02054         1.25095        12.84674
     2006.02418         8.19021        22.49818
     2006.02601         2.48441        12.99412
     2006.02875        -3.27183        12.50695
     2006.03149        -8.09708        12.46805
     2006.03423       -28.16729        12.62158
     2006.03582        18.95849        42.21657
     2006.03970        -3.05880        13.29298
     2006.04122        13.40248        47.00238
     2006.04518       -10.46525        14.29599
     2006.04791        -2.35052        13.36872
     2006.05065         7.30426        13.67986
     2006.05346       -13.05054        14.16703
     2006.05613         2.20575        13.07600
     2006.05887        -0.72046        12.83446
     2006.06161         9.55230        12.67684
     2006.06434        18.58806        12.45373
     2006.06717         4.55534        13.19063
     2006.06982        -4.59845        12.49671
     2006.07255        -8.42470        12.00135
     2006.07532        -9.72976        12.71164
     2006.07803        -1.37818        13.01664
     2006.08077       -12.41342        14.43109
     2006.08350        15.13734        12.71983
     2006.08624         9.11610        12.78124
     2006.08872         9.20126        14.16703
     2006.09172        22.03964        12.82423
     2006.09446        11.46540        13.06986
     2006.09720        11.33916        12.87949
     2006.09994         8.32692        13.08624
     2006.10815        39.85117        13.23157
     2006.11046         8.27537        15.18233
     2006.11362        -1.06732        12.91839
     2006.11636       -19.93256        13.03097
     2006.11910       -26.97980        12.51923
     2006.12183       -27.86704        12.35752
     2006.12374       -16.70940        18.67035
     2006.12731       -16.74349        12.39436
     2006.13005       -19.67773        12.35138
     2006.13185        -7.47074        20.24037
     2006.13553       -15.38522        12.23265
     2006.13925        -7.85341        37.42873
     2006.14191       -26.65814        24.29132
     2006.14374       -19.84997        12.39232
     2006.14648       -18.03621        12.50490
     2006.14921       -16.22945        12.59906
     2006.15195       -22.51169        12.53765
     2006.15469       -17.26094        12.61544
     2006.15709       -17.05024        14.30418
     2006.16016        -4.04142        13.16607
     2006.16264         2.71274        15.46276
     2006.16564       -16.89190        12.94090
     2006.16838       -16.67614        13.12308
     2006.17112        -7.49938        12.71369
     2006.17385        -2.67862        12.95523
     2006.17659        -0.64487        13.04939
     2006.17933        -8.29111        12.57654
     2006.18207        -5.62635        13.07600
     2006.18480        20.98141        13.07805
     2006.18754        35.75817        13.12104
     2006.19028        26.49193        13.38100
     2006.19175        36.52695        55.57506
     2006.19576        18.47544        15.55488
     2006.19849        18.40720        13.45674
     2006.20123        18.07996        13.60003
     2006.20488         4.26331        25.44376
     2006.20671        -3.80752        14.71153
     2006.20882         9.81343        17.86590
     2006.41291         4.87067        21.08168
     2006.41478         0.18914        12.67275
     2006.41673        -9.48896        21.02231
     2006.63740         5.95180        20.68661
     2006.63929         3.10835        13.08419
     2006.64203        10.48111        12.86312
     2006.64476         7.93087        13.18449
     2006.64750        13.62362        13.24181
     2006.65024        19.13838        12.93681
     2006.65298         5.04314        13.47925
     2006.65572        11.47690        13.56318
     2006.65845         8.53666        13.22952
     2006.66119        16.36142        13.38100
     2006.66348        14.54041        16.62748
     2006.66754         8.35329        22.84411
     2006.66940         4.19469        12.99822
     2006.67214         6.44945        13.33392
     2006.67488         8.01621        14.15475
     2006.67762        13.08197        13.41580
     2006.68036         5.93073        13.02892
     2006.68305        12.97022        14.08516
     2006.68583        13.02225        13.47925
     2006.68779         5.29023        20.95477
     2006.69226        13.09161        25.74057
     2006.69385        12.16033        13.48949
     2006.69679        16.38931        12.71574
     2006.69953        17.75507        12.55812
     2006.70226        11.44083        12.88564
     2006.70500         1.87158        12.78943
     2006.70774         4.30234        12.75872
     2006.71048        10.72010        12.41279
     2006.71321         4.38186        12.44758
     2006.71595         9.99662        12.71983
     2006.71869        10.49335        12.94295
     2006.72142         7.01611        13.20496
     2006.72416        13.07587        13.14969
     2006.72595        24.05984        25.69758
     2006.72964        15.61741        12.57450
     2006.73238         9.90617        12.36571
     2006.73595        21.03502        19.51780
     2006.73767         5.67258        13.46288
     2006.74159        22.73156        24.96681
     2006.74333        22.17718        12.45577
     2006.74598        20.05041        13.04735
     2006.74881        20.07172        12.43530
     2006.75239         8.95566        20.56994
     2006.75378         1.00019        16.61316
     2006.75702        13.06397        12.36161
     2006.75975        14.44273        12.39232
     2006.76249        14.87349        12.44963
     2006.76523        13.08625        13.14969
     2006.76797         5.41200        12.68503
     2006.77070        12.68276        12.43735
     2006.77344         4.55352        12.31658
     2006.77605        12.51650        13.28889
     2006.77892        15.45504        13.37486
     2006.78166        12.33980        13.07191
     2006.78439        13.66256        12.52537
     2006.78713        18.17732        12.70346
     2006.79073       -10.63966        22.53707
     2006.79261         7.76583        13.74331
     2006.79535        18.21759        13.21315
     2006.79709         5.64427        26.58596
     2006.80082        10.79411        13.46697
     2006.80356        10.95287        12.55812
     2006.80630        13.58263        12.47010
     2006.80903        13.19938        12.32477
     2006.81177        13.86914        12.48443
     2006.81451         5.90090        12.88973
     2006.81725        14.78566        12.67275
     2006.81999        12.53642        12.42097
     2006.82272        13.21018        12.55607
     2006.82546        16.18794        12.44758
     2006.82820        15.59470        12.28383
     2006.83094        13.55945        12.03615
     2006.83368        20.32221        12.13849
     2006.83641        11.86197        12.72392
     2006.84839        -7.71674        29.19584
     2006.84969        16.17326        15.80256
     2006.85832        20.61504        13.04120
     2006.86105         2.60180        13.11285
     2006.86379       -13.90244        13.26432
     2006.86904        -2.62432        14.49660
     2006.87294         6.27357        23.80004
     2006.87474         3.10259        12.65228
     2006.87748        10.77035        12.20195
     2006.88022        10.13611        12.19786
     2006.88296         7.93687        12.57859
     2006.88569         1.28663        12.55607
     2006.88843         9.13039        12.47829
     2006.89117         3.46014        12.28178
     2006.89391        -0.53510        12.55607
     2006.89665        14.76466        12.71164
     2006.89938         4.96942        12.73007
     2006.90214         2.39327        12.39232
     2006.90486         5.65594        12.67480
     2006.90760        16.89370        12.41074
     2006.91034         0.36546        12.71369
     2006.91307         9.02021        12.62362
     2006.91581         3.46097        13.66348
     2006.91855         3.52273        12.39232
     2006.92129         1.64449        12.50285
     2006.92402        -2.36475        12.56017
     2006.92676        -4.66099        12.63795
     2006.92950         1.41077        12.67070
     2006.93149         1.26693        18.80750
     2006.93589        -0.01013        24.85014
     2006.93771        -1.54596        12.72597
     2006.94045         6.44880        12.58268
     2006.94312        -3.22388        12.99003
     2006.94585        -6.34418        13.21724
     2006.94871        -9.89463        14.79750
     2006.95140        11.25384        17.86794
     2006.95396         1.66949        14.39834
     2006.95692         4.73059        12.99208
     2006.95963        -2.44780        12.52537
     2006.96218        -2.95821        13.33187
     2006.96507         2.81648        13.41375
     2006.96786         7.55359        13.21315
     2006.97052       -10.88217        13.35030
     2006.97603        -2.36239        12.96342
     2006.97836       -15.18114        15.65313
     2006.98518         0.39958        25.75489
     2006.98697        -1.57245        15.14958
     2006.98961        -3.54830        14.67878
     2006.99247       -21.95278        13.58365
     2006.99521       -10.39000        13.24181
     2006.99766        -9.83304        15.68588
     2007.00237        -9.73118        39.72133
     2007.00616       -18.85799        19.91695
     2007.00888       -17.50432        25.08758
     2007.01039       -42.13313        70.08189
     2007.01437       -17.38272        15.07998
     2007.01711       -37.51496        14.67263
     2007.01983       -45.32531        13.92345
     2007.02353       -18.08265        23.25146
     2007.02533       -18.81368        13.32983
     2007.02804       -31.35604        12.99208
     2007.03078       -47.58531        12.80171
     2007.03354       -31.65240        13.50382
     2007.03628       -23.27165        12.66661
     2007.03901       -27.64689        13.49972
     2007.04160       -29.02706        14.93465
     2007.04449       -43.78540        14.21207
     2007.04723       -41.71661        13.80677
     2007.04997       -39.18085        13.66348
     2007.05270       -35.24609        13.07805
     2007.05544       -30.31134        12.46396
     2007.05818       -35.09358        12.75668
     2007.06092       -31.93682        13.07600
     2007.06365       -35.35309        12.88564
     2007.06639       -26.99530        13.30117
     2007.06913       -17.56754        15.51394
     2007.07189       -15.23264        30.22751
     2007.07460       -34.01308        12.80785
     2007.07734       -32.11230        13.03097
     2007.08006       -27.82165        13.02688
     2007.08281       -17.14681        12.67684
     2007.08556       -29.10499        12.56221
     2007.08784       -30.03700        14.75656
     2007.09103       -26.90647        12.94500
     2007.09374       -32.26689        12.63591
     2007.09650       -27.55898        12.96137
     2007.09925       -29.40320        13.30936
     2007.10198       -30.35544        12.44349
     2007.10472       -25.78368        17.79835
     2007.10746       -26.94692        13.17426
     2007.11019       -31.19319        12.47420
     2007.11294       -28.54940        12.31863
     2007.11567       -31.63864        12.35138
     2007.11842       -28.61786        12.69731
     2007.12115       -29.98913        13.14151
     2007.12389       -52.64337        13.80472
     2007.12663       -62.41561        13.66143
     2007.12936       -27.55585        14.27757
     2007.13211       -29.99306        12.50899
     2007.13483       -22.18136        12.90610
     2007.13757       -28.27860        13.77402
     2007.14031       -35.50782        16.46987
     2007.14305       -49.44006        19.49528
     2007.14579       -56.25730        16.55789
     2007.15400       -62.38702        13.79244
     2007.15676       -32.46415        13.30731
     2007.15895       -38.47676        16.16282
     2007.16222       -38.13175        13.02073
     2007.16496       -46.11399        12.85902
     2007.16769       -60.53023        13.02073
     2007.17043       -43.24647        12.52742
     2007.17316       -37.51377        12.54379
     2007.17594       -48.16478        12.98594
     2007.17864       -45.30620        12.36980
     2007.18138       -43.58244        12.37185
     2007.18415       -38.23647        12.32681
     2007.18686       -48.19092        12.64000
     2007.19239       -42.77908        13.18859
     2007.19507       -43.10664        12.02796
     2007.19781       -42.59389        12.30430
     2007.20055       -46.05413        12.39027
     2007.20329       -42.73437        12.57040
     2007.20876       -40.65485        12.34933
     2007.21150       -44.37209        12.14054
     2007.21424       -41.45133        12.40460
     2007.21697       -33.65757        12.29611
     2007.21971       -33.00582        12.30839
     2007.22245       -31.54806        12.49262
     2007.22519       -27.49330        12.50285
     2007.22793       -41.94754        12.50490
     2007.23066       -28.52278        12.21832
     2007.23340       -32.88102        12.37799
     2007.23614       -38.15226        12.30225
     2007.23888       -23.89251        12.40869
     2007.24162       -27.56675        12.30839
     2007.24435       -28.82199        12.38822
     2007.24709       -35.48423        12.08323
     2007.24983       -23.03547        12.00953
     2007.25257       -30.29171        12.27359
     2007.25530       -32.33895        12.24494
     2007.25804       -31.92519        12.31044
     2007.26078       -12.27144        12.27155
     2007.26352       -19.76265        12.14668
     2007.26626       -15.74592        11.94403
     2007.26899       -25.26616        12.28383
     2007.27173       -18.02440        12.48852
     2007.27386       -14.86540        17.41147
     2007.27811       -20.30036        20.26903
     2007.27995       -18.15213        11.97064
     2007.28268       -16.23537        12.19990
     2007.28542       -19.68761        12.17943
     2007.28816       -10.39885        12.19376
     2007.29090       -28.26909        12.11188
     2007.29363       -19.56933        11.86625
     2007.29637       -20.39157        12.05661
     2007.29911       -13.31681        12.38208
     2007.30185       -19.65106        12.31044
     2007.30459       -12.19830        12.08323
     2007.30732       -18.05854        12.51513
     2007.31006       -20.09578        12.35138
     2007.31280       -12.74702        12.22242
     2007.31638       -22.40808        19.48095
     2007.31828       -18.75250        12.35957
     2007.32101       -11.02175        12.16715
     2007.32375       -16.42699        12.25312
     2007.32649       -11.40623        12.23879
     2007.32923       -12.57847        12.14873
     2007.33196       -19.03371        12.58064
     2007.33470       -16.46995        12.25312
     2007.33744       -16.17919        11.97474
     2007.34018       -20.23943        12.15282
     2007.34292       -12.36768        12.72392
     2007.34565       -23.11992        16.14235
     2007.34839       -11.01016        12.11393
     2007.35113        -3.21040        12.59497
     2007.35370        -6.08566        13.42399
     2007.35668        -9.74042        13.45674
     2007.35934         4.42688        12.43940
     2007.36208        -2.85337        12.16101
     2007.36480        -2.47972        12.56836
     2007.36756         3.22818        12.35342
     2007.37030        -3.37706        12.20400
     2007.37304         3.51473        12.64000
     2007.37577         0.72640        12.66661
     2007.37851         6.98022        12.53765
     2007.38125         6.21497        12.26131
     2007.38399        -9.44124        12.36161
     2007.38672        -5.03857        12.30634
     2007.38946         6.29825        12.19376
     2007.39220         2.18101        12.47829
     2007.39494         5.08077        12.26336
     2007.39679       -15.34489        21.92707
     2007.40045        -0.30251        12.65638
     2007.40316         5.42607        11.89081
     2007.40589         4.62680        11.85601
     2007.40863         0.78856        12.10370
     2007.41137        -3.67568        12.05047
     2007.41411        11.97911        12.30839
     2007.41671        -4.72595        12.97365
     2007.41969         5.51129        12.45373
     2007.42232         7.93535        12.22037
     2007.42506        -1.30989        12.56836
     2007.42780        -1.40410        11.93789
     2007.43053        -2.36940        12.08937
     2007.43326         7.31536        11.98702
     2007.43600         7.02112        12.04843
     2007.43874         0.10888        12.30225
     2007.44148         7.07864        12.14463
     2007.44422         1.13639        12.26336
     2007.44695        -3.11485        12.36980
     2007.44969        -5.20609        11.85806
     2007.45243         3.70267        11.99930
     2007.45517        -1.65857        12.08937
     2007.45791         6.82319        11.88262
     2007.46064         4.28995        11.98907
     2007.46338        10.75071        11.92561
     2007.46612         0.65446        12.11393
     2007.46886        -1.41678        11.90923
     2007.47159        11.49598        12.03000
     2007.47433         9.51774        12.14668
     2007.47707         5.59550        12.23470
     2007.47967        -2.05459        12.75463
     2007.48255         3.68802        12.15896
     2007.48528         1.97277        11.91128
     2007.48802         3.62453        12.12212
     2007.49076        11.79929        12.22856
     2007.49350        -1.85795        12.19376
     2007.49624        14.66281        12.36775
     2007.49897         6.32957        12.39436
     2007.50171         2.51033        11.84168
     2007.50445         4.43409        12.08527
     2007.50719         6.26484        12.08732
     2007.50992         7.43860        11.99316
     2007.51266         4.92836        12.00544
     2007.51540         8.34812        11.97678
     2007.51814         3.96688        14.14042
     2007.52088         7.65064        12.16510
     2007.52361        -1.61560        12.05252
     2007.52635         8.53515        12.56426
     2007.52909        10.89291        12.18148
     2007.53183         8.59267        12.30839
     2007.53457        11.42543        12.28178
     2007.53730        15.43419        12.31658
     2007.54004         8.19095        12.27359
     2007.54202         8.66405        19.14525
     2007.54653        18.64166        24.27289
     2007.54825        -1.31878        14.28781
     2007.55099         2.49098        12.32886
     2007.55373         8.67174        12.33705
     2007.55647         9.52350        12.22447
     2007.55921        20.14326        12.15487
     2007.56194        17.45602        12.35342
     2007.56468        12.47078        12.04433
     2007.56742         5.30853        12.13031
     2007.57016        13.41829        12.16510
     2007.57290         7.85205        12.29202
     2007.57563        16.59781        12.03819
     2007.57837         7.81757        12.10165
     2007.58112        14.62041        12.17534
     2007.58385        17.40509        12.30634
     2007.58658        14.18584        12.13440
     2007.58932        14.06960        11.97678
     2007.59206         8.22536        12.09346
     2007.59480        18.76012        12.37594
     2007.59754        14.58291        12.40050
     2007.60027        17.32064        12.10370
     2007.60301        18.10240        12.18967
     2007.60575        16.96516        12.08937
     2007.60849        15.63591        12.04843
     2007.61123        20.31867        12.14463
     2007.61328        13.11424        17.34392
     2007.61760        15.77472        22.84002
     2007.61944        18.03995        13.23157
     2007.62217        17.23768        12.40460
     2007.62491        16.23347        12.47420
     2007.62765        12.05322        12.73621
     2007.63039        14.56598        12.90406
     2007.63313         7.05774        12.84060
     2007.63587        10.34950        12.31044
     2007.63860        16.23026        12.26131
     2007.64134        18.65602        12.18967
     2007.64408        19.21178        12.84060
     2007.64682        12.52754        12.76077
     2007.64956        24.83132        13.41989
     2007.65229        15.58405        12.68708
     2007.65503        13.51581        12.45168
     2007.65777        17.12157        12.66456
     2007.66051        17.54133        12.60929
     2007.66324        25.68709        12.68503
     2007.66598        22.75385        12.53560
     2007.66872        21.50760        12.43326
     2007.67146        21.59936        12.62362
     2007.67420        23.65512        13.53043
     2007.67693        32.16485        12.61748
     2007.67967        17.71864        13.93163
     2007.68240        26.09037        12.41688
     2007.68515        22.76816        12.77101
     2007.68789        26.46592        12.71574
     2007.69062        21.33767        12.57450
     2007.69337        23.12146        12.59497
     2007.69595        29.93226        13.36872
     2007.69974        20.82848        23.27807
     2007.70157        22.22771        12.69527
     2007.70431        18.06547        13.15174
     2007.70705        23.15123        12.83446
     2007.70979        28.43898        12.72392
     2007.71253        24.80074        12.33705
     2007.71526        26.72950        12.18353
     2007.71800        28.40726        12.12621
     2007.72074        23.11502        12.21628
     2007.72348        16.97678        12.65638
     2007.72621        29.64154        12.02591
     2007.72895        26.40130        12.15078
     2007.73169        26.80105        12.29406
     2007.73443        23.51081        12.22242
     2007.73717        28.59057        12.76077
     2007.73990        21.36833        12.30430
     2007.74264        22.24309        12.24084
     2007.74538        22.87185        12.21423
     2007.74812        -2.66839        12.79762
     2007.75086         6.27236        13.44241
     2007.75359        15.67312        12.72188
     2007.75633        16.80788        12.43940
     2007.75907        25.07664        12.40869
     2007.76181        22.19440        12.46191
     2007.76454        17.30416        12.08937
     2007.76662        19.16287        18.44109
     2007.77639        17.28263        22.34465
     2007.77823        26.41095        12.40460
     2007.78097        27.77571        12.29202
     2007.78371        16.19947        12.28383
     2007.78645        20.54723        12.44349
     2007.78919        15.63699        12.16101
     2007.79192        17.69574        12.32477
     2007.79466        18.72050        12.34319
     2007.79740        20.34726        12.33500
     2007.80014        21.72302        12.23265
     2007.80287        12.90078        12.35138
     2007.80561        15.72054        12.16306
     2007.80835        23.77730        12.35342
     2007.81109        25.36606        12.32681
     2007.81383        25.90781        12.75054
     2007.81656        19.34557        12.78738
     2007.81930        16.94633        12.29202
     2007.82204        16.89809        12.15896
     2007.82478        17.04785        12.48238
     2007.82752        14.39261        12.42302
     2007.83025        19.45237        12.38822
     2007.83299        22.20912        12.14259
     2007.83573        20.34888        12.21218
     2007.83847        23.30464        12.09551
     2007.84120        14.97140        12.25517
     2007.84394        22.82716        13.94596
     2007.84668        15.40992        12.11598
     2007.84942        19.41968        12.14668
     2007.85216        25.93744        12.54993
     2007.85489        14.86619        12.37799
     2007.85763         3.02295        12.42302
     2007.86037        18.36471        12.29202
     2007.86311        27.09747        12.06480
     2007.86556         4.35951        13.57546
     2007.86949        25.00954        21.75103
     2007.87132        20.78475        12.13440
     2007.87406         6.10550        12.30430
     2007.87680        11.44126        12.21423
     2007.87953         7.51002        13.27865
     2007.88227       -16.55522        13.17630
     2007.88501       -21.09546        12.12826
     2007.88775        13.49430        12.16715
     2007.89049         9.87006        12.12416
     2007.89322        15.13682        12.47624
     2007.89596        13.12957        12.33910
     2007.89870         9.95133        12.18967
     2007.90144        17.86409        12.05047
     2007.90418        21.18285        12.18557
     2007.90691         9.67861        12.32067
     2007.90965         8.07137        12.30430
     2007.91239        16.21713        12.13235
     2007.91513        22.88088        12.17739
     2007.91786        20.15264        12.09551
     2007.92060        11.13340        15.31743
     2007.92334         2.63116        12.56426
     2007.92608        -3.15608        12.74235
     2007.92882         9.00568        12.40050
     2007.93155        -0.26356        12.62976
     2007.93429         0.42720        12.64614
     2007.93703         9.94295        12.52332
     2007.93977         2.55271        12.50899
     2007.94251        11.60247        12.32067
     2007.94524        13.98023        14.68082
     2007.94799        11.31105        12.46191
     2007.95072        12.20275        12.49467
     2007.95326        18.30331        13.71875
     2007.95715         6.90714        24.01907
     2007.95893        17.05002        12.49262
     2007.96167        24.15078        12.76896
     2007.96441        20.44754        12.71983
     2007.96715        14.09430        12.61544
     2007.96988         7.66006        12.69936
     2007.97262        21.59682        12.74030
     2007.97420         0.31750        31.09542
     2007.97934         2.93596        41.11531
     2007.98084        12.16409        12.66047
     2007.98357        10.88685        12.17943
     2007.98631        -4.10639        12.66456
     2007.98905         3.96737        13.13332
     2007.99179         4.26413        13.41580
     2007.99452        -1.09411        13.14355
     2008.00372        -9.83284        23.85122
     2008.00548         6.00192        12.17739
     2008.00822        -0.63126        12.65023
     2008.01095         3.47744        12.48443
     2008.01370        -1.60875        12.11598
     2008.01643        -3.52705        12.45373
     2008.01916       -12.63029        12.57040
     2008.02190        -3.55653        12.70141
     2008.02464        -8.91177        12.69117
     2008.02738       -33.19101        12.59701
     2008.03012       -24.42922        13.01050
     2008.03285       -24.95949        12.48238
     2008.03559       -15.89773        12.36775
     2008.03833       -22.46298        12.34114
     2008.04107       -21.29322        12.37799
     2008.04381       -25.95646        12.52537
     2008.04654       -23.17570        12.59087
     2008.04928       -22.97294        12.54993
     2008.05447       -19.21617        14.93465
     2008.05720       -24.53950        14.69106
     2008.06378       -35.64820        30.25003
     2008.06570       -20.55042        14.56415
     2008.06822       -17.51800        15.37270
     2008.07088       -23.13673        15.14139
     2008.07357       -23.66230        15.21917
     2008.07666       -22.92038        15.54259
     2008.07916       -20.55002        15.60810
     2008.08213       -19.98887        14.74223
     2008.08487       -22.92308        14.49455
     2008.09309        -5.26280        15.44229
     2008.09856       -11.77729        16.12598
     2008.10404         4.87623        14.91008
     2008.10943        10.29723        14.29599
     2008.11316        13.44107        23.66290
     2008.11773       -29.31097        13.38509
     2008.12047       -28.34922        17.51791
     2008.12320       -40.20146        14.10153
     2008.12594       -39.29570        13.26228
     2008.12868       -38.68594        13.18040
     2008.13142       -38.25718        12.73825
     2008.13415       -33.49342        13.18244
     2008.13689       -39.18666        14.15885
     2008.13963       -40.32291        13.03302
     2008.14237       -36.64415        13.43627
     2008.14511       -46.62736        13.05553
     2008.14769       -39.89759        13.94392
