# ================= DQRFIT RESULTS ================
# INPUT FILE: series/WSLB.rad
# OUTPUT: LDETRENDED
# FILTER FUNCTION: f(t)
# f(t)=+line(t)+annual(t)+jumps(t)
# line(t)=+P 1+P 2*t
# annual(t)=+P 3*sin(2*pi*t+P 4)
# jumps(t)=+P 5*heav(t-2017.5448  )
# heav(t)=(t<0?0:1)
# TOTAL OBSERVATIONS MTOT= 2132
# INITIAL TIME INTERVAL= 2022.7488 - 2016.9007 =  5.8480
# TOTAL OBSERVATIONS AFTER PREFILTER M= 2000
# TIME-SPAN= 2022.7488 - 2016.9007 =  5.8480
# OBSERVATIONS: USED M=  2000 REJECTED MTOT-M=   132 %USED=   93.8086
# N=  5 PARAMETERS
# MAXSIG= 175.00000
# MAXRES=  30.08643
# SCALE FACTOR FOR LENGTHS: SCL=  10.00000
# SCALE FACTOR FOR SIGMAS: SCLSIG=   1.00000
# CHI^2=   4939.245 DOF=  1995 CHI^2/DOF=   2.47581
# RMS=     10.709 SDEV=     10.712 MEAN=   -0.02098
#  P #       PARAMETER +-    SIGMA %error PARAMETER NAME
# P 1 =     -8666.91302 +-  342.024   3.95 YZERO                              
# P 2 =         4.29409 +-    0.170   3.95 SLOPE                              
# P 3 =        10.18591 +-    0.339   3.33 ANNUAL AMPLITUDE                   
# P 4 =        -2.71277 +-    0.043   1.57 ANNUAL PHASE                       
# P 5 =        30.15288 +-    0.884   2.93 OFFSET 2017.5448                   
#       T            LDETRENDED       SIG_OBS
     2016.90075         9.11098        11.04262
     2016.90349        -8.47977        10.56114
     2016.90622         5.77647        10.84279
     2016.90896         6.22371        10.99856
     2016.91170         5.66196        11.18423
     2016.91444         9.84220        10.29522
     2016.91718         5.34944        10.71377
     2016.91991       -10.16131        10.54383
     2016.92265        22.88193        10.31253
     2016.92539         2.98817        10.20553
     2016.92813         2.12842        10.02459
     2016.93086         3.52766         9.89713
     2016.93360        -2.43410         9.88927
     2016.93634        -0.82385         9.97423
     2016.93908         2.13839         9.95535
     2016.94182         5.76963         9.94749
     2016.94455        -6.96912         9.83892
     2016.94729       -13.31988        10.01514
     2016.95003        -7.08164        10.18351
     2016.95277       -12.25739        10.20553
     2016.95551        -8.37815         9.90028
     2016.95824         1.24109         9.90500
     2016.96098         9.81434         9.95850
     2016.96372         5.37058        10.02616
     2016.96646        -2.63118        10.13788
     2016.96919        -1.13393        10.28736
     2016.97193       -11.17569        10.22914
     2016.97467        -0.33945        10.21026
     2016.97741         0.21280        10.63195
     2016.98015         5.23604        10.11899
     2016.98288         1.55328        10.05763
     2016.98562        11.34053         9.99154
     2016.98836       -11.92323        10.22756
     2016.99110       -19.47599        10.33141
     2016.99384       -32.03774        10.64296
     2016.99931         9.02074        10.09697
     2017.00205         0.38399        10.16620
     2017.00479        -4.69577        10.08123
     2017.00752        -7.99353        10.13788
     2017.01026         4.69972         9.91444
     2017.01300         6.88696         9.81374
     2017.01574        -1.87279         9.87668
     2017.01848        -1.06455         9.90500
     2017.02121        -1.96131         9.98682
     2017.02395       -19.81706        10.13473
     2017.02669       -27.67882        10.37390
     2017.02943       -26.33258        10.01829
     2017.03216       -25.16333         9.89556
     2017.03490       -17.32909         9.98210
     2017.03764       -12.70285        10.10169
     2017.04038         2.38840        10.01514
     2017.04312         7.13564        10.16148
     2017.04585        -4.55712        11.29438
     2017.04859        11.38713        11.12130
     2017.05133        11.51337        10.58789
     2017.05407        13.68661        10.42267
     2017.05681        22.87886        10.23543
     2017.05954         5.98210        10.11742
     2017.06228         9.38934        10.14574
     2017.06502         3.66859        10.09225
     2017.06776         0.43683        10.23858
     2017.07049        -4.03293        10.19295
     2017.07323        -2.54468        10.10798
     2017.07597        -7.16144        10.17879
     2017.07871         3.61080        10.26533
     2017.08145        -5.07695        10.18980
     2017.08418        -5.82171         9.91130
     2017.08692         0.94653         9.71304
     2017.08966        -8.16422         9.80115
     2017.09240        -3.46498         9.67528
     2017.09514       -10.97874        10.02773
     2017.09787        -4.64249        10.01042
     2017.10061        -6.86625         9.65954
     2017.10335       -15.91701         9.73349
     2017.10609       -10.46676         9.70674
     2017.10882       -39.56552        10.16148
     2017.11430        -5.84203        10.20396
     2017.11704        -6.75079        10.26061
     2017.11978        -3.74454        10.18665
     2017.12251        -9.47530        10.20868
     2017.12525        -9.96506        10.32669
     2017.12799         6.81619        10.43841
     2017.13073        14.60143        10.26218
     2017.13347         6.09767        10.15833
     2017.13620        -0.76808        10.17564
     2017.13894        -0.55284        10.28578
     2017.14168        -5.99860        10.15361
     2017.14442         1.81365         9.79801
     2017.14715        -4.61311         9.85465
     2017.14989        -2.79587         9.83892
     2017.15263         3.36238         9.96165
     2017.15537         3.73662         9.75238
     2017.15811         3.84386         9.83577
     2017.16084         4.38311         9.70989
     2017.16358       -13.52865        10.34557
     2017.16632        -5.15041        10.19609
     2017.16906        -7.54816        10.36760
     2017.17180        -3.65692        10.34715
     2017.17453        -0.44868        10.26375
     2017.17727       -12.42943        10.49348
     2017.18001        -9.86219        10.52495
     2017.18275        -8.71995        10.67600
     2017.18548       -14.51070        10.15204
     2017.18822       -27.37046        10.47932
     2017.19096        -6.59422        10.35974
     2017.19370        -4.44997        10.69331
     2017.19644       -18.73973        10.61936
     2017.19917         3.01851        10.30466
     2017.20191        -3.15224        10.33928
     2017.20465       -11.94200        10.54855
     2017.20739        -6.59276        10.26847
     2017.21013        -4.68351        10.39120
     2017.21286       -11.44827        10.09067
     2017.21560       -13.70503         9.99469
     2017.21834        -3.73578        10.05606
     2017.22108        -2.03354        10.31725
     2017.22381        -2.82430        10.47303
     2017.22655         4.20795        10.67600
     2017.22929        -4.74981        10.38019
     2017.23203         3.59544        10.15676
     2017.23477        -9.78732        10.38648
     2017.23750         0.05692        10.45257
     2017.24024       -12.82483        10.43211
     2017.24298        -4.54759        10.49663
     2017.24572       -11.68135        10.23071
     2017.24846       -13.86410        10.57845
     2017.25119       -15.24086        10.47145
     2017.25393       -16.08362         9.90500
     2017.25667        -6.96937        10.31096
     2017.25941       -17.76013        10.84594
     2017.26214        -7.21189        10.29050
     2017.26488        -2.71764        10.38963
     2017.26762         0.69560        10.55642
     2017.27036        -0.25516        10.26061
     2017.27310        -7.10891        10.27791
     2017.27583       -15.37167        10.16148
     2017.27857       -10.90043        10.10955
     2017.28131       -10.68418        10.33928
     2017.28405        -7.89394        10.36131
     2017.28679       -15.91370        10.19137
     2017.28952        -4.73445        10.08438
     2017.29226        -4.99321        10.17249
     2017.29500       -10.79997        10.38963
     2017.29774        -9.86972        10.34715
     2017.30047       -16.02748        10.26061
     2017.30321        -7.08924        10.21340
     2017.30595        -9.50799        10.15204
     2017.30869        -6.80975        10.26375
     2017.31143        -7.33651        10.01987
     2017.31416        -8.74526        10.18036
     2017.31690        -0.15902        10.17879
     2017.31964        -0.55278        10.35659
     2017.32238       -11.96253        10.28736
     2017.32512       -20.28129        10.27005
     2017.32785       -11.63505        10.34243
     2017.33059       -17.33680        10.18980
     2017.33333       -13.23856        10.02773
     2017.33607       -15.36232        10.35974
     2017.33880       -13.16207        10.41638
     2017.34154        -9.37983        10.70275
     2017.34428        -9.85558        10.11742
     2017.34702        -4.14634        10.07022
     2017.34976        -7.02710        10.14102
     2017.35249       -16.77285        10.04819
     2017.35523       -21.26161        10.03717
     2017.35797        -9.31937        10.22442
     2017.36071        -4.33912        10.20711
     2017.36344        -4.20088        10.03717
     2017.36618        -7.92764        10.05920
     2017.36892        -7.94939        10.24330
     2017.37166        -3.03015        10.15361
     2017.37440        -7.64691        10.09067
     2017.37713        -4.21266        10.24645
     2017.37987       -16.79342        10.34085
     2017.38261       -16.02918        10.03088
     2017.38535       -15.44693        10.04819
     2017.38809        -8.07069        10.05448
     2017.39082        -9.30145        10.27634
     2017.39356        -5.54520        10.16305
     2017.39630        -1.12696        10.08280
     2017.39904        -2.85772        10.18508
     2017.40177       -12.12847         9.83577
     2017.40451        -8.43723        10.66184
     2017.40725        -6.15199        10.14574
     2017.40999        -4.00274        10.34557
     2017.41273        -0.71450        10.28578
     2017.41546        -2.15826        10.14260
     2017.41820         2.97299        10.37390
     2017.42094        -2.78277        10.43998
     2017.42368        -9.53653        10.12843
     2017.42642       -13.61728        10.28578
     2017.42915        -0.96104        10.30624
     2017.43189         9.26620        10.20396
     2017.43463         1.54145        10.43211
     2017.43737         2.29769        10.22914
     2017.44010        -2.22407        10.26533
     2017.44284        -6.47282        10.13788
     2017.44558         3.82942        10.09854
     2017.44832         2.84966        10.27319
     2017.45106        12.25991        10.16305
     2017.45379         3.56415        10.55170
     2017.45653         7.10240        10.61464
     2017.45927        -7.68336        10.28736
     2017.46201         1.77988        10.15204
     2017.46475         1.91113        10.18508
     2017.46748         1.87137        10.32984
     2017.47022         0.18761        10.34400
     2017.47296        -8.50114        10.59104
     2017.47570        -3.97490        10.15833
     2017.47843        -5.29966        10.26218
     2017.48117         0.33259        10.33456
     2017.48391         3.40583        10.67915
     2017.48665         1.19707        10.29522
     2017.48939        -8.53768        10.20081
     2017.49212        -7.81444        10.24645
     2017.49486         4.65880        10.31882
     2017.49760        -5.30295        10.37232
     2017.50034        -0.67771        10.45886
     2017.50308        -7.48447        10.45572
     2017.50581       -10.36822        10.29365
     2017.50855        -4.26598        10.55170
     2017.51129        -1.90674        10.53911
     2017.51403         6.68551        10.49977
     2017.51676        -5.12425        10.74681
     2017.51950        -0.76601        10.32827
     2017.52224        -0.91076        10.25746
     2017.52498         0.81548        10.26375
     2017.52772         5.12472        10.83492
     2017.53045         0.15097        10.63195
     2017.53319       -13.43279        10.34557
     2017.53593         3.67645        10.72950
     2017.53867         5.23770        10.39750
     2017.54141         7.99694        10.40537
     2017.54407         5.68049        11.64054
     2017.54688        29.89943        10.38334
     2017.54962        37.77767        10.62250
     2017.55236        30.89991        10.26690
     2017.55509        42.31616        10.39592
     2017.55783        42.33040        10.16148
     2017.56057        31.21264        10.07336
     2017.56331        25.93589        10.08123
     2017.56605        27.56313        10.16462
     2017.56878        30.45238        10.33299
     2017.57152        30.28762        10.27634
     2017.57426        33.08086        10.16462
     2017.57700        23.50411        10.08910
     2017.57974        29.06635         9.98368
     2017.58247        24.88359         9.98368
     2017.58521        26.63684        10.11427
     2017.58795        23.55808        10.25274
     2017.59069        28.34132        10.30309
     2017.59342        33.08057        10.13316
     2017.59616        30.77581        10.05133
     2017.59890        32.66905        10.08595
     2017.60164        32.24330        10.10955
     2017.60438        31.07154        10.11585
     2017.60711        32.19178        10.01042
     2017.60985        34.16103        10.42267
     2017.61259        35.11127        10.02301
     2017.61533        45.49451        10.49820
     2017.61807        38.93776        10.20553
     2017.62080        33.34100         9.93018
     2017.62354        36.80624        10.21970
     2017.62628        35.05349        10.14732
     2017.62902        38.31173        10.36603
     2017.63175        39.78597        10.07494
     2017.63449        32.76622        10.24330
     2017.63723        34.22146         9.92860
     2017.63997        36.03170        10.33771
     2017.64271        41.59195        10.15676
     2017.64544        40.80819        10.32669
     2017.64818        37.60343        10.10798
     2017.65092        36.85368         9.94906
     2017.65366        32.24892         9.99626
     2017.65639        35.51016        10.20081
     2017.65913        44.22441         9.98525
     2017.66187        32.50265         9.88612
     2017.66461        48.81689        10.33299
     2017.66735        31.32614        10.26847
     2017.67008        42.04538        10.13945
     2017.67282        48.21063        10.28893
     2017.67556        39.83687         9.95850
     2017.67830        31.43911        10.01829
     2017.68104        28.24736        10.13473
     2017.68377        42.16360        10.35816
     2017.68651        45.47184        10.47303
     2017.68925        60.47009        10.22284
     2017.69199        47.29933        10.18665
     2017.69472        36.31957        10.03875
     2017.69746        40.60882        10.15518
     2017.70020        37.95406        10.10483
     2017.70294        39.34830        10.07651
     2017.70568        36.57555        10.02301
     2017.70841        40.05379         9.84993
     2017.71389        57.52328        10.15204
     2017.71663        56.92452        10.07336
     2017.71937        51.53476        10.18980
     2017.72210        42.26401        10.01829
     2017.72484        36.53925        10.13630
     2017.72758        38.06049        10.01829
     2017.73032        41.69474        10.17092
     2017.73305        43.72798        10.10169
     2017.73579        50.26722        10.15518
     2017.73853        43.74447         9.89556
     2017.74127        38.29271        10.01829
     2017.74401        41.49395        10.14102
     2017.74674        38.17420        10.24487
     2017.74948        39.87844         9.99784
     2017.75222        42.85368         9.89713
     2017.75496        34.35493        10.17879
     2017.75770        34.27917        10.28578
     2017.76043        34.42041         9.96951
     2017.76317        41.20966        10.01200
     2017.76591        51.80590         9.94277
     2017.76865        45.99014        10.18823
     2017.77138        38.06539        10.09382
     2017.77412        34.42463         9.78857
     2017.77686        45.27787        10.11899
     2017.77960        42.27812        10.06707
     2017.78234        26.85136        10.08910
     2017.78507        45.21161        10.06550
     2017.78781        43.11685        10.06550
     2017.79055        40.31109        10.27634
     2017.79329        48.62034        10.53754
     2017.79603        30.77658        10.25589
     2017.79876        34.67082        11.00801
     2017.80150        54.66607        10.69488
     2017.80424        40.95631        10.43684
     2017.80698        22.12855        10.41638
     2017.80971        39.49080        10.50135
     2017.81245        41.87204        10.21812
     2017.81519        40.24328        10.33771
     2017.81793        38.52853        10.00728
     2017.82067        26.59877        10.05606
     2017.82340        40.05601        10.00098
     2017.82614        34.70226        10.16148
     2017.82888        25.69250         9.90028
     2017.83162        36.21974        10.17249
     2017.83436        40.29299         9.93804
     2017.83709        22.65223        10.42897
     2017.83983        -3.38753         9.63751
     2017.84257         4.13572         9.68000
     2017.85078        -6.77555         9.65639
     2017.85352        10.53069         9.95378
     2017.85626        40.87993        10.10955
     2017.85900        41.56718        10.46673
     2017.86173        37.11742        10.33613
     2017.86721        -9.38909        11.01902
     2017.86995        19.40415        10.59890
     2017.87269        -7.94061        10.80188
     2017.87542         5.26464        10.75782
     2017.89459        45.81834        10.29994
     2017.89733        36.97759        10.25746
     2017.90006        38.34783        10.53754
     2017.90280        14.25207        10.45729
     2017.90554        30.98532         9.97266
     2017.90828        25.21456        10.12529
     2017.91102         8.15580        10.48719
     2017.91375         3.78305        10.60520
     2017.91649        16.86129        10.66814
     2017.91923        14.87453        10.65555
     2017.92197         9.45378        10.81604
     2017.92470         6.27502        10.18980
     2017.92744         7.17526        10.47932
     2017.93018        24.35251        10.44313
     2017.93292        21.73875         9.85622
     2017.93566        23.68799        10.00570
     2017.93839        22.35724         9.84206
     2017.94113        20.11548        10.03088
     2017.94387        38.87172        10.11113
     2017.94661        34.61597        10.02616
     2017.94935        27.29221        10.04976
     2017.95208        24.29645        10.31882
     2017.95482        31.50170        10.02773
     2017.95756        24.19694        10.04976
     2017.96030        19.20318        10.11899
     2017.96303        10.21943        10.40537
     2017.96577        21.28767        10.51551
     2017.96851        12.27391        10.12843
     2017.97125         8.82216         9.87983
     2017.97399        12.18840         9.99941
     2017.97672         6.32964         9.90028
     2017.97946         9.76289         9.82003
     2017.98220         4.75613         9.76968
     2017.98494         3.45737         9.78699
     2017.98767         3.85862        10.00728
     2017.99041        -8.11614        10.01672
     2018.01505        11.80205        10.32040
     2018.01779        22.85730        10.29522
     2018.02053         7.66354        10.69016
     2018.02327         6.55178        10.77671
     2018.02600        27.50603        10.24172
     2018.02874        25.84627        10.02773
     2018.03148        17.07251        10.02931
     2018.03422       -14.32724        10.54383
     2018.03696        17.24800        10.50135
     2018.03969        21.57024        10.11113
     2018.04243        26.82949        10.49977
     2018.04517        15.91973        10.35659
     2018.04791        12.84297        10.59890
     2018.05065        21.62122        10.01987
     2018.05338        21.90946        10.31253
     2018.08076        17.42389        10.32827
     2018.08350        17.76414        10.33771
     2018.08624         3.57838        10.25117
     2018.08898        -0.87538        10.53124
     2018.09171        32.13787        10.82863
     2018.09445        36.95311        10.74052
     2018.09719        35.14135        10.89472
     2018.09993        35.60560        10.79087
     2018.10266        32.31684        10.55327
     2018.10540        21.20908        11.07409
     2018.10814        17.60333        10.05448
     2018.11088        19.81557        10.11742
     2018.11362        26.25882        10.07179
     2018.11635        12.90806         9.93018
     2018.11909        13.63030        10.36288
     2018.12183         2.48855        10.33299
     2018.12457        23.15379        10.23700
     2018.12731        19.31103        10.26847
     2018.13004         7.72628        10.55799
     2018.13278       -25.00148        10.00098
     2018.13552       -25.71224         9.90500
     2018.14647       -22.99126        10.52652
     2018.14921       -25.49102        10.26061
     2018.15195        20.16122        10.44785
     2018.15468        14.83647        10.15676
     2018.15742        20.78971        10.37075
     2018.16016        25.62295        10.14417
     2018.16290       -10.73980        10.74996
     2018.16564        15.58344        10.46516
     2018.16837         9.57368        10.47145
     2018.17111        19.09093        10.07808
     2018.17385        24.26217        10.15676
     2018.17659        23.96841        10.35029
     2018.17932        22.71066        10.17092
     2018.18206        28.20290        10.50921
     2018.18480        24.93714        10.71377
     2018.18754        19.84139        10.14732
     2018.19028        25.31563        10.16148
     2018.19301        28.73987        10.29208
     2018.19575        29.72612        10.29050
     2018.19849        39.11136        10.47617
     2018.20123        40.73460        10.53911
     2018.20397        30.16585        10.26218
     2018.20670        27.02409        10.37390
     2018.20944        28.77733        10.31410
     2018.21218        25.75958        10.40222
     2018.21492        14.04482        10.21812
     2018.21765        27.78606        10.33299
     2018.22039        22.38631        10.52023
     2018.22313        18.22655        10.55957
     2018.22587        19.80880        10.26533
     2018.22861        11.21904        10.19609
     2018.23134        18.52228        10.43684
     2018.23408        13.29953        10.42425
     2018.23682        28.21177        10.25746
     2018.23956        27.16701        10.33299
     2018.24230        21.57926        10.37232
     2018.24503        20.33050        10.33613
     2018.24777        20.78074        10.25746
     2018.25051        21.55299        10.04661
     2018.25325        20.59623        10.08910
     2018.25598        19.53547        10.21970
     2018.25872        20.71272        10.63195
     2018.26146        30.14696        10.89157
     2018.26420        29.68420        10.59418
     2018.26694        26.17845        10.36288
     2018.26967        39.00469        10.54068
     2018.27241        28.05993        10.41638
     2018.27515        33.33118        10.14102
     2018.27789        31.35442        10.77828
     2018.28062        20.72166        10.77198
     2018.28336        29.71791        10.32040
     2018.28610        27.83915        10.25746
     2018.28884        18.86639        10.17407
     2018.29158        36.72064        10.71849
     2018.29431        21.51288        10.43684
     2018.29705        20.15912        10.14260
     2018.29979        25.63737        10.31410
     2018.30253        20.95361        10.35187
     2018.30527        19.01385         9.99784
     2018.30800        15.44510        10.18508
     2018.31074        18.13534        10.16935
     2018.31348        22.70758        10.12843
     2018.31622        21.00383        10.14574
     2018.31895        26.61307        10.51079
     2018.32169        28.68431        10.25746
     2018.32443        31.39356        10.45886
     2018.32717        20.90080        10.20711
     2018.32991        16.35404        10.59104
     2018.33264        29.62229        10.19452
     2018.33538        19.04853        10.46673
     2018.33812        20.00278        10.56271
     2018.34086        19.93302        10.13630
     2018.34360        12.88226        10.20239
     2018.34633        23.07951        10.12057
     2018.34907        19.30775        10.21340
     2018.35181        34.85199        10.58474
     2018.35455        25.54124        10.22284
     2018.35728        27.63848        10.17879
     2018.36002        26.01772        10.07336
     2018.36276        24.20097        10.42582
     2018.36550        23.69221        10.03717
     2018.36824        35.17845        10.17564
     2018.37097        24.66370        10.07494
     2018.37371        26.91494        10.14417
     2018.37645        31.04618        10.54383
     2018.37919        23.16843        10.12843
     2018.38193        37.42667        10.55170
     2018.38466        27.93591        10.09854
     2018.38740        29.07716        10.19767
     2018.39014        32.17740        10.10483
     2018.39288        30.58664        10.30781
     2018.39561        26.04189        10.31882
     2018.39835        23.81813        10.06392
     2018.40109        30.72237        10.14102
     2018.40383        28.74562        10.23228
     2018.40657        26.34086        10.12843
     2018.40930        34.98010        10.29050
     2018.41204        34.62335        10.09225
     2018.41478        25.80359        10.00413
     2018.41752        30.04083        10.35344
     2018.42026        30.46008        10.26690
     2018.42299        45.18932        10.18036
     2018.42573        35.68956         9.92388
     2018.42847        36.98781        10.09382
     2018.43121        31.24805        10.24015
     2018.43394        37.50129        10.31253
     2018.43668        42.30054        10.28736
     2018.43942        35.39678         9.98210
     2018.44216        35.95002        10.11427
     2018.44490        37.08427        10.15204
     2018.44763        44.73051        10.48247
     2018.45037        30.48876        10.27791
     2018.45311        37.13400        10.14574
     2018.45585        36.17424        10.17879
     2018.45859        35.85749        10.28736
     2018.46132        29.44273        10.34400
     2018.46406        32.43697        10.32984
     2018.46680        20.81922        10.35974
     2018.46954        33.88846        10.31568
     2018.47227        39.89270        10.56114
     2018.47501        35.34595        10.44313
     2018.47775        36.47919        10.56114
     2018.48049        36.95243        10.74838
     2018.48323        44.80168        10.29522
     2018.48596        23.86492        10.12057
     2018.48870        38.85616        10.37704
     2018.49144        33.74941        10.59261
     2018.49418        41.87065        10.80975
     2018.49692        46.18289        10.62565
     2018.49965        41.42314        10.44156
     2018.50239        33.61038        10.38176
     2018.50513        26.69062        10.56586
     2018.50787        36.79287        10.58474
     2018.51060        30.84811        10.71062
     2018.51334        39.22235        10.72950
     2018.51608        37.26660        10.46201
     2018.51882        28.51384        10.57530
     2018.52156        39.05208        10.55170
     2018.52429        29.53333        10.36446
     2018.52703        28.23457        10.55485
     2018.52977        29.91981        10.54855
     2018.53251        28.19206        10.42110
     2018.53525        38.54130        10.71691
     2018.53798        23.58054        10.44942
     2018.54072        32.96079        10.42425
     2018.54346        34.96903        10.47775
     2018.54620        33.89127        10.60205
     2018.54893        49.30252        10.52967
     2018.55167        37.26276        10.62565
     2018.55441        33.39900        10.53754
     2018.55715        34.44925        10.53282
     2018.55989        29.02049        10.60992
     2018.56262        24.72774        10.30466
     2018.56536        34.02298        10.30309
     2018.56810        35.63422        10.63509
     2018.57084        31.57147        10.31568
     2018.57357        35.03271        10.49505
     2018.57631        27.91295        10.98283
     2018.57905        36.13120        10.95451
     2018.58179        42.43844        10.70747
     2018.58453        36.78568        10.61149
     2018.58726        43.24093        10.38806
     2018.59000        37.27917        10.29050
     2018.59274        48.40841        10.47932
     2018.59548        34.59366        10.31725
     2018.59822        32.12090        10.33928
     2018.60095        36.28914        10.28578
     2018.60369        42.73839        10.54068
     2018.60643        40.49663        10.48247
     2018.60917        38.16087        10.36918
     2018.61190        37.20812        10.66971
     2018.61464        44.35136        10.27949
     2018.61738        32.48160        10.30781
     2018.62012        44.08685        10.36288
     2018.62286        43.32909        10.81447
     2018.62559        36.31333        10.73579
     2018.62833        39.50558        10.32669
     2018.63107        34.97282        10.32512
     2018.63381        34.53806        10.57058
     2018.63655        38.67931        10.26533
     2018.63928        39.62555        10.75940
     2018.64202        40.12979        10.86482
     2018.64476        48.76504        10.16935
     2018.64750        46.06128        10.28106
     2018.65023        51.27052        11.30224
     2018.65297        45.89077        10.46358
     2018.65571        39.99501        10.29208
     2018.65845        41.72625        10.35501
     2018.66119        49.50550        10.55957
     2018.66392        44.17374        10.31410
     2018.66666        44.40699        10.33613
     2018.66940        41.58023        10.48247
     2018.67214        40.04547        10.65712
     2018.67488        37.92072        10.26533
     2018.67761        36.90896        10.35501
     2018.68035        32.61820        10.50449
     2018.68309        28.80045        10.59890
     2018.68583        51.61369        10.90101
     2018.68856        53.04793        10.65869
     2018.69130        46.67618        10.58946
     2018.69404        52.05242        10.84594
     2018.69678        44.40766        10.46201
     2018.69952        51.10891        10.63667
     2018.70225        47.35615        10.67915
     2018.70499        38.65439        10.35501
     2018.70773        39.45564        10.48404
     2018.71047        30.88788        10.56114
     2018.71321        44.04412        10.50764
     2018.71594        49.14437        10.34557
     2018.71868        38.97361        10.29522
     2018.72142        39.98985        10.56901
     2018.72416        37.88710        10.63981
     2018.72689        51.53434        10.77513
     2018.72963        41.06758        10.50921
     2018.73237        44.14083        10.22127
     2018.73511        41.68807        10.43054
     2018.73785        35.96431        10.19767
     2018.74058        29.67356        10.49348
     2018.74332        35.09380        10.46830
     2018.74606        42.76904        10.50292
     2018.74880        40.05929        10.80188
     2018.75154        23.12853        10.63509
     2018.75427        33.74977        10.38019
     2018.75701        39.22302        10.56114
     2018.75975        48.85026        10.60362
     2018.76249        39.61850        10.36603
     2018.76522        32.90675        10.62723
     2018.76796        43.70299        10.72006
     2018.77070        49.95623        10.52495
     2018.77344        43.11548        10.33928
     2018.77618        37.66672        10.41481
     2018.77891        46.83597        10.22442
     2018.78165        32.27821        10.39907
     2018.78439        34.79945        10.38019
     2018.78713        42.56970        10.24487
     2018.78987        29.57394        10.51236
     2018.79260        33.69618        10.20553
     2018.79534        43.51043        10.32512
     2018.79808        33.92867        10.36288
     2018.80082        44.48891        10.43211
     2018.80355        36.32716        10.11585
     2018.80629        37.34440        10.65240
     2018.80903        40.10464        10.32669
     2018.81177        37.84389        10.99542
     2018.81451        49.09813        10.76569
     2018.81724        43.20637        10.80345
     2018.81998        52.04462        10.38806
     2018.82272        55.22586        10.83650
     2018.82546        48.00610        10.52180
     2018.82820        45.49135        10.52652
     2018.83093        48.85659        10.53754
     2018.83367        43.61283        10.27791
     2018.83641        53.20708        10.62565
     2018.83915        59.56132        10.60677
     2018.84188        49.02756        10.88685
     2018.84462        48.56981        10.43369
     2018.84736        41.52205        10.51236
     2018.85010        38.04629        10.39907
     2018.85284        35.71954        10.32355
     2018.85557        43.82878        10.48247
     2018.85831        34.39702        10.39435
     2018.86105        34.66627        10.27477
     2018.86379        33.79151        10.26061
     2018.86653        32.12275        10.30152
     2018.86926        17.52100        10.77985
     2018.87200        43.14824        10.42739
     2018.87474        47.20848        10.55957
     2018.87748        37.85673        10.42425
     2018.88021        28.02697        10.32197
     2018.88295        42.86421        10.49663
     2018.88569        43.30646        10.45100
     2018.88843        49.07270        10.39750
     2018.89117         3.86995        10.90416
     2018.89390        36.72419        10.89472
     2018.89664        34.56543        10.64296
     2018.89938        40.14468        10.35659
     2018.90212        22.77992        10.87898
     2018.90485        48.13616        10.50921
     2018.90759        55.05241        10.43684
     2018.91033        56.00165        10.27162
     2018.91307        40.05789        10.34243
     2018.91581        40.55214        10.16148
     2018.91854        39.73338        10.02301
     2018.92128        39.60362        10.09539
     2018.92402        39.23887        10.04819
     2018.92676        33.42511         9.78384
     2018.92950        38.73835        10.07808
     2018.93223        34.55160         9.86724
     2018.93497        35.48684        10.08123
     2018.93771        27.55108        10.65712
     2018.94045        27.02633        10.89944
     2018.94318        23.14657        10.52810
     2018.95414        52.94254        10.25746
     2018.95687        26.57879        10.50449
     2018.95961        25.83603        10.97654
     2018.96235        33.16927        10.83020
     2018.96509        42.02952        10.72478
     2018.96783        10.81176        10.75310
     2019.01163       -21.24234        13.05824
     2019.01437         5.32190        12.06695
     2019.02806        30.16412        10.75153
     2019.03080        28.74236        10.69488
     2019.03353        26.88260        10.51079
     2019.03627        23.24985        10.42582
     2019.03901        27.24109        10.14574
     2019.04175        22.14733         9.92546
     2019.04449        25.74358        10.20239
     2019.04722        19.67482        10.72635
     2019.04996        24.13006        10.93877
     2019.05270        15.77331        10.83020
     2019.05544        25.41355        10.24959
     2019.05817        11.40979        10.64139
     2019.06091       -14.22796        10.73422
     2019.06365        21.13228        10.22442
     2019.06639        21.89852        10.48089
     2019.06913        27.35577        10.81919
     2019.07186        22.00001        10.66027
     2019.07460        17.51325        10.25589
     2019.07734        20.34650        10.10483
     2019.08008        15.06474        10.01042
     2019.08282        27.66498        10.81132
     2019.08555        33.93823        11.37777
     2019.08829        28.15847        11.24245
     2019.09103        24.38671        10.03403
     2019.09377        19.63396         9.93018
     2019.09650        28.85020         9.72248
     2019.09924        21.07644         9.88455
     2019.10198        17.46169        10.02301
     2019.10472        21.94993        10.02301
     2019.10746        21.59017         9.88769
     2019.11019        24.59342         9.96794
     2019.11293        30.67866         9.81217
     2019.11567        28.18791        10.26690
     2019.11841        30.97315         9.90972
     2019.12115        25.97439        10.06550
     2019.12388        23.08164        10.23228
     2019.12662        13.31888        10.05133
     2019.12936        20.44812        10.00728
     2019.13210        21.91137        10.07966
     2019.13483        25.45461         9.96479
     2019.13757        25.20585        10.14732
     2019.14031        30.80910        10.07022
     2019.14305        18.61634        10.17407
     2019.14579        24.15458        10.15676
     2019.14852        19.59983         9.96794
     2019.15126        23.84907        10.07966
     2019.15400        22.13631        10.00098
     2019.15674        25.67956         9.92388
     2019.15948        14.89680        10.10798
     2019.16221         3.91304        10.44313
     2019.16495        22.39029        10.13316
     2019.16769        16.90853         9.90658
     2019.17043        19.55177        10.14889
     2019.17316        28.04802        10.14889
     2019.17590        20.33626         9.93647
     2019.17864        19.60950        10.23071
     2019.18138        25.76975        10.06864
     2019.18412        16.23899         9.98682
     2019.18685        22.22523        10.08595
     2019.18959        21.93548        10.10955
     2019.19233       -22.79628        10.52652
     2019.19507        14.28196        10.25589
     2019.19780        21.55921        10.12686
     2019.20054        21.58945        10.59261
     2019.20328        19.24169        10.21183
     2019.20602        16.32294        10.25589
     2019.20876        11.90218        10.27949
     2019.21149        11.53742        10.38019
     2019.21423        18.68667        10.33771
     2019.21697        23.02791        10.22127
     2019.21971        19.99416        10.55485
     2019.22245        26.35440        10.29837
     2019.22518        18.30464        10.36918
     2019.22792        23.09689        10.41795
     2019.23066        24.07713        10.32669
     2019.23340        15.65537        10.40851
     2019.23613         6.52762        10.36131
     2019.23887        20.20586        10.26847
     2019.24161        13.03010        10.73107
     2019.24435        20.86735        10.41481
     2019.24709        19.25359        10.46830
     2019.24982        33.21283        10.35974
     2019.25256        27.67608        10.45257
     2019.25530        31.05932        10.55013
     2019.25804        28.14556        10.38648
     2019.26078        31.45781        10.37390
     2019.26351        25.96105        10.81762
     2019.26625        22.84629        10.31410
     2019.26899        22.15254        10.32512
     2019.27173        34.44278        11.00643
     2019.27446        36.45002        10.23228
     2019.27720        28.22727        10.71377
     2019.27994        32.58851        10.71849
     2019.28268        26.83075        10.64925
     2019.28542        33.59600        10.26847
     2019.29089        30.76048        10.22756
     2019.29363        36.21573        10.56271
     2019.29637        36.86597        10.99070
     2019.29911        35.69921        10.54698
     2019.30184        19.87446        10.38019
     2019.30458        20.47870        10.37704
     2019.30732        25.53394        10.33613
     2019.31006        31.34319        10.57530
     2019.31279        21.55643        10.51236
     2019.31553        26.96767        10.29680
     2019.31827        29.07592        10.44470
     2019.32101        12.71216        10.37075
     2019.32375        16.35540        10.34872
     2019.32648        23.91865        10.37390
     2019.32922        23.07589        10.40065
     2019.33196        21.87714        10.49348
     2019.33470        23.92738        10.56586
     2019.33744        24.75862        10.21026
     2019.34017        21.61287        10.32827
     2019.34291        22.77911        10.18980
     2019.34565        19.13835        10.39750
     2019.34839        23.84560        10.47145
     2019.35112        17.28684        10.28893
     2019.35386        21.68608        10.28893
     2019.35660        25.90633        10.35187
     2019.35934        25.31157        10.37547
     2019.36208        26.19381        10.46830
     2019.36481        33.45406        10.50607
     2019.36755        27.44930        10.48089
     2019.37029        22.57254        10.37075
     2019.37303        38.37679        10.57373
     2019.37577        35.78303        10.43526
     2019.37850        20.12727        10.38806
     2019.38124        34.66952        10.28264
     2019.38398        30.11776        10.39907
     2019.38672        20.40500        10.42897
     2019.38945        24.44225        10.49191
     2019.39219        38.03649        10.38176
     2019.39493        44.81873        10.71377
     2019.39767        37.64698        10.21970
     2019.40041        30.57522        10.21498
     2019.40314        26.73246        10.33141
     2019.40588        34.49671        10.25431
     2019.40862        31.00795        10.49033
     2019.41136        33.34419        10.49033
     2019.41410        32.71844        10.40065
     2019.41683        24.36368        10.50764
     2019.41957        33.37792        10.44628
     2019.42231        22.41017        10.35659
     2019.42505        35.71341        10.43526
     2019.42778        40.34765        10.88685
     2019.43052        36.82390        10.35344
     2019.43326        31.70214        10.44156
     2019.43600        30.36838        10.37547
     2019.43874        33.89763        10.37704
     2019.44147        32.38787        10.50607
     2019.44421        28.51412        10.44470
     2019.44695        32.92736        10.74524
     2019.44969        19.85260        10.57058
     2019.45243        23.68385        10.35816
     2019.45516        31.20909        10.54698
     2019.45790        24.42833        10.55642
     2019.46064        27.23058        10.75468
     2019.46338        23.79082        11.17637
     2019.46611        38.94206        11.19053
     2019.46885        27.02931        10.75310
     2019.47159        35.40655        10.55485
     2019.47433        32.85379        10.49033
     2019.47707        32.28304        10.49505
     2019.47980        33.99128        10.63824
     2019.48254        30.53152        10.52180
     2019.48528        47.24677        10.79087
     2019.48802        30.95701        10.72321
     2019.49076        35.60025        10.64768
     2019.49349        36.77150        10.61778
     2019.49623        27.13974        10.40537
     2019.49897        33.17498        10.66499
     2019.50171        35.50323        10.52652
     2019.50444        33.32147        10.55485
     2019.50718        29.98971        10.57687
     2019.50992        41.60896        10.97811
     2019.51266        41.85320        10.90416
     2019.51540        43.48944        10.57845
     2019.51767        42.82267        12.58148
     2019.52480        44.25007        31.06662
     2019.52635        36.74942        11.05993
     2019.52908        32.47566        11.37934
     2019.53182        36.55690        10.65712
     2019.53456        30.76215        10.69016
     2019.53730        33.66939        10.66656
     2019.54004        44.25063        11.01902
     2019.54277        48.91388        11.15749
     2019.54551        30.16712        11.21728
     2019.54825        45.56236        10.53911
     2019.55099        35.95161        10.61621
     2019.55373        42.74885        10.73737
     2019.55646        38.11810        10.86954
     2019.55920        32.83834        11.32113
     2019.56194        37.05858        10.52180
     2019.56468        30.38183        10.74209
     2019.56741        38.39507        10.76097
     2019.57015        32.50131        10.69960
     2019.57289        33.16456        10.79401
     2019.57563        33.16780        10.57058
     2019.57837        45.25104        10.81604
     2019.58110        47.41629        10.63509
     2019.58384        47.68753        11.29595
     2019.58658        44.92277        10.70118
     2019.58932        34.15502        10.50135
     2019.59206        34.99026        10.79716
     2019.59479        36.71650        10.60992
     2019.59753        42.49475        11.19840
     2019.60027        32.93799        11.02846
     2019.60301        34.59123        10.64453
     2019.60574        42.06548        11.17794
     2019.60848        44.25372        11.46589
     2019.61122        34.77296        10.68544
     2019.61396        42.48521        10.80975
     2019.61670        39.01745        10.69803
     2019.61943        35.20369        10.57845
     2019.62217        38.85094        10.71219
     2019.62491        41.30518        10.52810
     2019.62765        43.22542        10.73894
     2019.63039        48.50267        10.77985
     2019.63312        39.28091        10.73894
     2019.63586        48.54315        10.94192
     2019.63860        35.75740        10.72950
     2019.64134        37.62764        10.63981
     2019.64407        32.34288        10.48089
     2019.64681        38.56313        10.60362
     2019.64955        37.39237        10.45257
     2019.65229        33.70961        10.54698
     2019.65503        31.28986        10.61778
     2019.65776        30.00010        10.62565
     2019.66050        42.64535        10.73894
     2019.66324        42.63259        10.66184
     2019.66598        34.39083        10.42110
     2019.66872        38.79508        10.55327
     2019.67145        39.49632        10.60834
     2019.67419        36.39756        10.83335
     2019.67693        36.54181        10.55799
     2019.67967        32.39505        10.73265
     2019.68240        38.75829        10.31253
     2019.68514        40.11354        10.54068
     2019.68788        29.46378        10.57373
     2019.69062        39.74802        10.80345
     2019.69336        43.74927        10.45100
     2019.69609        43.88151        10.62723
     2019.69883        47.34375        10.72163
     2019.70157        43.54500        11.23459
     2019.70431        49.43924        11.00958
     2019.70705        36.05748        10.75468
     2019.70978        50.59073        10.75153
     2019.71252        36.64897        10.72478
     2019.71526        38.05321        10.52652
     2019.71800        34.65246        11.06622
     2019.72073        40.35970        10.89157
     2019.72347        45.72394        10.78457
     2019.72621        49.40019        10.81289
     2019.72895        39.69143        10.64768
     2019.73169        42.39167        10.33141
     2019.73442        55.84992        11.40295
     2019.73716        49.29716        10.41953
     2019.73990        40.05440        10.84436
     2019.74264        47.05165        10.50135
     2019.74538        38.63789        10.28106
     2019.74811        37.21113        10.71377
     2019.75085        37.67238        10.62723
     2019.75359        50.00762        10.97339
     2019.75633        40.99286        10.52810
     2019.75906        43.21411        10.30938
     2019.76180        37.05535        10.45886
     2019.76454        41.94559        10.72950
     2019.76728        54.27284        10.71691
     2019.77002        33.13108        10.21026
     2019.77275        31.18633        10.49348
     2019.77549        39.15957        10.43211
     2019.77823        41.58281        10.44785
     2019.78097        46.03006        10.38648
     2019.78371        42.00430        10.45729
     2019.78644        34.73554        10.50292
     2019.78918        44.70479        10.69646
     2019.79192        52.69803        10.70275
     2019.79466        51.30127        10.88213
     2019.79739        51.93952        10.61936
     2019.80013        53.32076        10.83178
     2019.80287        41.78100        10.77513
     2019.80561        48.64225        10.76884
     2019.80835        47.18049        10.62880
     2019.81108        41.86673        10.74209
     2019.81382        44.86898        10.87741
     2019.81656        37.32622        10.40379
     2019.81930        32.81646        10.36918
     2019.82203        31.86571        10.61936
     2019.82477        33.91195        10.43684
     2019.82751        32.10719        10.51866
     2019.83025        39.02744        10.57845
     2019.83299        31.25068        10.68072
     2019.83572        36.27392        10.53439
     2019.83846        46.12817        10.44313
     2019.84120        46.96041        10.31882
     2019.84394        47.58065        10.74052
     2019.84668        35.60490        10.44470
     2019.84941        37.17914        10.41638
     2019.85215        40.81738        10.41166
     2019.85489        40.55763        10.53439
     2019.85763        44.33687        10.76254
     2019.86036        42.70511        10.28578
     2019.86310        43.72236        10.43369
     2019.86584        58.22260        10.74681
     2019.86858        52.65384        10.44313
     2019.87132        48.56709        10.84751
     2019.87405        48.82633        10.74209
     2019.87679        39.23257        10.87426
     2019.87953        60.80682        10.52338
     2019.88227        58.34806        10.31725
     2019.88501        52.28231        10.40065
     2019.88774        43.63055        10.71377
     2019.89048        44.14879        10.38963
     2019.89322        45.39304        10.43369
     2019.89596        40.66128        10.55485
     2019.89869        44.68252        10.32827
     2019.90143        42.56577        10.05133
     2019.90417        40.13701        10.19767
     2019.90691        30.83325        10.09382
     2019.90965        36.56850         9.95221
     2019.91238        43.42374         9.81374
     2019.91512        44.76598        10.30781
     2019.91786        40.58423        10.46988
     2019.92060        36.36147        10.73422
     2019.92334        49.78771        10.72006
     2019.92607        40.90596        10.38491
     2019.92881        -3.62780        10.68702
     2019.93155        47.98044        10.72793
     2019.93429        45.34969        10.76097
     2019.93702        33.50193        10.36446
     2019.93976        35.48317        10.69960
     2019.94250        45.50242        10.59576
     2019.94524        18.07766        10.79401
     2019.94798        33.38990        10.83335
     2019.95071        32.19015        10.91202
     2019.95345        35.92639        10.29994
     2019.95619        42.15863        10.43526
     2019.95893        20.96388        10.78929
     2019.96167        41.46412        10.84436
     2019.96440        20.43136        10.95293
     2019.96714       -12.28139        11.52725
     2019.96988        -7.61215        11.05049
     2019.97262        23.15209        10.73107
     2019.97535        28.43834        10.52810
     2019.97809        19.56558        10.38648
     2019.98083        22.84382        10.47775
     2019.98357        16.69207        10.23228
     2019.98631        15.83031        10.50607
     2019.98904        13.61655        10.66656
     2019.99178        11.97380        10.83020
     2019.99452        -4.85596        10.66971
     2020.00000         6.22753        11.36676
     2020.00273        43.19677        10.48719
     2020.00547         0.14602        10.75782
     2020.00821        33.10226        10.75782
     2020.01095        24.01950        10.64139
     2020.01368        -8.72925        10.59261
     2020.05475        31.63840        10.40537
     2020.05749        17.34964        10.76726
     2020.06023       -18.26812        11.32427
     2020.06297        35.99513        10.43054
     2020.06570        35.36237        10.58002
     2020.06844        32.18961        10.44942
     2020.07118        32.97686        10.39907
     2020.07392        31.15110        10.53282
     2020.07666        41.42734        10.47617
     2020.07939        34.55459        10.27791
     2020.08487        32.15107        10.56271
     2020.08761        30.39632         9.77126
     2020.09034        25.27356        10.09225
     2020.09308        21.52280         9.79643
     2020.09582         0.33205        10.43841
     2020.09856         0.03629        10.62250
     2020.10130         8.44453        10.58159
     2020.10403         0.35178        10.54226
     2020.10677        31.85302        10.06078
     2020.10951        26.87527        10.24487
     2020.11225        33.66051        10.45886
     2020.11498        36.95375        10.29208
     2020.11772        28.01500        10.35501
     2020.12046        20.29124        10.52652
     2020.12320        26.59548        10.30466
     2020.12594        33.63473        10.24015
     2020.12867        24.45997         9.88297
     2020.13141        28.80621        10.04976
     2020.13415        33.73246        10.03403
     2020.13689        21.47370        10.48247
     2020.13963        25.96294        10.47932
     2020.14236        20.47619        10.61464
     2020.14510        22.86343        10.19137
     2020.14784         7.86967        10.42425
     2020.15058        23.06092        10.27005
     2020.15331        23.18516        10.45257
     2020.15605        25.54040        10.24802
     2020.15879        34.68765        10.46044
     2020.16153        27.39189        10.58474
     2020.16427        26.63013         9.99312
     2020.16700        24.90738        10.17879
     2020.16974        27.31762        10.63981
     2020.17248        26.15086        10.40694
     2020.17522        14.28611        10.19609
     2020.17796         0.97435        10.76726
     2020.18069        26.30359        10.14732
     2020.18343        24.34784        10.09697
     2020.18617        21.45408        10.07336
     2020.18891        22.72632        10.05291
     2020.19164         9.17157        10.19924
     2020.19438        25.21781        10.09067
     2020.19712        23.65605        10.10798
     2020.19986        18.68330         9.99784
     2020.20260        16.54654         9.85308
     2020.20533        24.45978        10.24959
     2020.20807        26.44403        10.08752
     2020.21081        20.73127        10.28893
     2020.21355        16.93952        11.20941
     2020.21629        18.86976        10.64296
     2020.21902        25.10100        10.41323
     2020.22176        22.88125        10.01987
     2020.22450        29.63249        10.34715
     2020.22724        40.10473        10.45572
     2020.22997        26.58798        10.13788
     2020.23271        31.74622        10.17721
     2020.23545        42.26646        10.77671
     2020.23819        41.07971        10.86639
     2020.24093        36.03295        11.07409
     2020.24366        15.87719        10.66027
     2020.24640        32.26944        10.73422
     2020.24914        20.86768        10.26690
     2020.25188        25.18692        10.13630
     2020.25462        21.38317        10.28736
     2020.25735        27.29241         9.95378
     2020.26009        31.45265        10.17249
     2020.26283        20.00390        10.10955
     2020.26557        16.22914        10.39750
     2020.26830        23.24038        10.31568
     2020.27104        26.71663        10.20396
     2020.27378        27.19787        10.21183
     2020.27652        19.28211        10.20711
     2020.27926        20.62636        10.29522
     2020.28199        21.49960        10.47932
     2020.28473        21.07484        10.20868
     2020.28747        26.20109        10.29365
     2020.29021        22.84133        10.48561
     2020.29295        24.18157        10.31568
     2020.29568        26.78282        10.26218
     2020.29842        30.85906        10.27162
     2020.30116        36.34830        10.03245
     2020.30390        25.08155        10.16148
     2020.30663        25.36779        10.23228
     2020.30937        21.99503        10.54540
     2020.31211        14.10728        10.40222
     2020.31485        32.84052        10.32355
     2020.31759        25.15376        10.38176
     2020.32032        29.83701        10.48089
     2020.32306        22.74725        10.11270
     2020.32580        27.76650        10.21498
     2020.32854        28.47774        10.63667
     2020.33128        29.60998        10.16148
     2020.33401        32.82623        10.31410
     2020.33675        32.07347        10.44785
     2020.33949        22.40571        10.16620
     2020.34223        16.90596        10.65397
     2020.34496        28.40020        10.44942
     2020.34770        24.67244        10.15833
     2020.35044        21.32869        10.45414
     2020.35318        16.83893        10.29050
     2020.35592        18.72917        10.33456
     2020.35865        20.70942        10.28893
     2020.36139        27.55566        10.16777
     2020.36413        39.36090        10.30624
     2020.36687        36.04815        10.32197
     2020.36961        24.45839        10.38648
     2020.37234        26.66363        10.26061
     2020.37508        38.16988        10.20553
     2020.37782        36.97712        10.23700
     2020.38056        30.41236        10.18036
     2020.38329        26.28561        10.21655
     2020.38603        31.07085        10.49505
     2020.38877        33.32009        10.60362
     2020.39151        26.71434        10.15204
     2020.39425        30.71058        10.54855
     2020.39698        36.10582        10.52495
     2020.39972        36.72107        10.50292
     2020.40246        29.17331        10.39592
     2020.40520        36.64855        10.44628
     2020.40794        27.92480        10.19924
     2020.41067        39.79304        10.41953
     2020.41341        34.07128        10.56271
     2020.41615        26.54353        10.32984
     2020.41889        35.71177        10.58159
     2020.42162        37.31501        10.47145
     2020.42436        39.58026        10.93091
     2020.42710        36.16350        10.96710
     2020.42984        28.55474        10.53754
     2020.43258        37.00499        10.30309
     2020.43531        41.46523        10.52495
     2020.43805        42.92648        10.76254
     2020.44079        41.42772        10.63037
     2020.44353        33.31196        10.60520
     2020.44626        33.70321        10.84122
     2020.44900        34.94745        10.87111
     2020.45174        47.25769        10.72950
     2020.45448        37.67894        10.60048
     2020.45722        34.97118        10.53754
     2020.45995        36.87942        10.55799
     2020.46269        23.40767        10.56586
     2020.46543        34.82491        10.50449
     2020.46817        37.95915        10.93877
     2020.47091        36.86040        10.79716
     2020.47364        34.10264        10.56114
     2020.47638        31.36388        10.89629
     2020.47912        33.13313        11.35889
     2020.48186        32.81737        10.96710
     2020.48459        34.68261        11.00486
     2020.48733        40.30986        11.10399
     2020.49007        37.09710        11.02217
     2020.49281        37.86834        10.73579
     2020.49555        30.52559        11.10241
     2020.49828        48.53283        10.84436
     2020.50102        45.80907        11.16535
     2020.50376        33.42532        10.71377
     2020.50650        36.98156        10.63981
     2020.50924        25.29380        10.43211
     2020.51197        37.38105        10.68702
     2020.51471        38.81529        10.52652
     2020.51745        33.80053        10.53754
     2020.52019        43.25078        11.24560
     2020.52292        41.42902        10.52495
     2020.52566        42.21726        10.52338
     2020.52840        49.84351        10.78929
     2020.53114        34.16275        10.45572
     2020.53388        34.53799        10.63352
     2020.53661        24.53624        10.71377
     2020.53935        35.71048        10.64296
     2020.54209        37.91872        10.69646
     2020.54483        38.21597        10.58317
     2020.54757        29.90021        10.49348
     2020.55030        32.28946        10.81447
     2020.55304        20.63370        10.51866
     2020.55578        42.54694        10.70433
     2020.55852        56.89919        10.98440
     2020.56125        45.40843        10.59890
     2020.56399        36.20467        10.77356
     2020.56673        34.05092        10.69488
     2020.56947        33.56716        10.81604
     2020.57221        53.78040        11.51152
     2020.57494        31.46365        11.07252
     2020.57768        44.94289        10.91674
     2020.58042        39.53513        10.69331
     2020.58316        26.08438        11.00014
     2020.58590        37.55762        11.12287
     2020.58863        36.55286        10.74209
     2020.59137        40.78411        10.89629
     2020.59411        40.43935        10.93091
     2020.59685        50.96859        11.44071
     2020.59958        53.15884        11.61537
     2020.60232        51.62108        11.04420
     2020.60506        39.49232        10.82863
     2020.60780        45.06157        11.01115
     2020.61054        40.02681        10.89314
     2020.61327        35.56705        10.79716
     2020.61601        42.60830        10.88527
     2020.61875        44.21454        10.95136
     2020.62149        38.15178        10.83964
     2020.62423        43.12903        11.06308
     2020.62696        43.62027        11.25504
     2020.62970        39.81651        11.14647
     2020.63244        48.91276        11.05678
     2020.63518        56.19400        10.80975
     2020.63791        38.63724        11.57760
     2020.64065        33.69149        11.00171
     2020.64339        28.83873        10.98283
     2020.64613        37.18997        10.68544
     2020.64887        39.10022        10.74996
     2020.65160        42.51946        10.63981
     2020.65434        34.17471        10.70433
     2020.65708        41.13295        10.99856
     2020.65982        27.97419        10.98440
     2020.66256        46.92944        10.79559
     2020.66529        49.74268        10.75940
     2020.66803        52.02692        10.93720
     2020.67077        39.65017        11.14018
     2020.67351        47.83641        10.91989
     2020.67624        49.11865        11.01115
     2020.67898        36.16790        10.69016
     2020.68172        37.94714        10.83020
     2020.68446        42.89538        11.03633
     2020.68720        42.43663        10.94192
     2020.68993        32.55187        10.92618
     2020.69267        32.94411        10.81447
     2020.69541        44.85736        11.40452
     2020.69815        45.48360        10.93091
     2020.70089        55.90684        10.84279
     2020.70362        39.39209        10.98126
     2020.70636        32.41033        11.44700
     2020.70910        43.00757        11.38249
     2020.71184        49.51082        11.18581
     2020.71457        41.31006        11.31483
     2020.71731        50.40930        11.62638
     2020.72005        31.81355        11.37777
     2020.72279        43.67179        10.89786
     2020.72553        56.48403        11.07409
     2020.72826        52.09428        11.27864
     2020.73100        40.74952        11.22672
     2020.73374        57.69276        11.41553
     2020.73648        42.05101        11.00486
     2020.73921        34.99725        10.93877
     2020.74195        42.46649        10.55013
     2020.74469        42.14474        10.97811
     2020.74743        32.36198        10.54226
     2020.75017        33.98322        10.72478
     2020.75290        31.52547        10.65712
     2020.75564        41.20971        10.62250
     2020.75838        54.84195        11.14175
     2020.76112        45.02420        10.92618
     2020.76386        32.30644        10.80188
     2020.76659        44.40969        10.71377
     2020.76933        46.68393        11.01902
     2020.77207        44.08517        11.20626
     2020.77481        61.77842        10.94035
     2020.77754        47.87766        10.78457
     2020.78028        44.28090        11.18109
     2020.78302        30.71915        10.90416
     2020.78576        38.11839        10.71377
     2020.78850        39.34663        10.83178
     2020.79123        43.49988        10.99542
     2020.79397        48.33612        10.86797
     2020.79671        34.24036        11.00171
     2020.79945        35.03961        10.94979
     2020.80219        45.48085        11.18895
     2020.80492        48.45009        10.77985
     2020.80766        40.75734        10.50292
     2020.81040        29.44958        10.83020
     2020.81314        -0.17618        10.64139
     2020.81587         6.06107        10.34400
     2020.81861        21.07431        10.43369
     2020.82135        46.40255        10.50449
     2020.82409        43.32080        10.87111
     2020.82683        34.27304        11.01430
     2020.82956        39.47728        11.41868
     2020.83230        52.14753        10.67600
     2020.83504        55.22777        10.51236
     2020.83778        48.64701        10.58474
     2020.84052        34.45326        10.98755
     2020.84325        54.39150        11.56501
     2020.84599        45.49474        11.26605
     2020.84873        42.48099        10.48561
     2020.85147        42.36523        10.37862
     2020.85420        43.00947        10.33141
     2020.85694        52.27972        10.60834
     2020.85968        36.57296        10.60048
     2020.86242        51.24420        10.39435
     2020.86516        48.12545        11.03003
     2020.86789         9.32069        11.11972
     2020.87063         3.44793        10.79873
     2020.87337         4.18118        11.16378
     2020.87611       -12.76958        11.38406
     2020.88432        41.26515        11.05521
     2020.88706        33.42740        11.78215
     2020.88980        42.35164        11.11972
     2020.89253        44.87988        10.63195
     2020.89527        43.13913        10.96237
     2020.89801        27.63537        11.37462
     2020.90075        20.05861        11.52253
     2020.90349        45.81286        10.91517
     2020.90622        41.52810        11.09769
     2020.90896        44.22034        10.99070
     2020.91170        45.62459        11.01587
     2020.91444         6.80283        11.72393
     2020.91718        37.84207        10.87426
     2020.91991        42.71132        10.88213
     2020.92265        31.43856        10.62408
     2020.92539        32.80480        10.71062
     2020.92813        33.09905        10.74996
     2020.93086        50.06029        10.83178
     2020.93360        46.29053        11.01745
     2020.93634         2.74378        11.48005
     2020.93908        36.25302        10.78615
     2020.94182        25.64426        10.80975
     2020.94455        37.97351        10.77356
     2020.94729        30.12175        10.46673
     2020.95003        37.53399        10.40537
     2020.95277        20.20124        10.53754
     2020.95551        24.90948        10.59261
     2020.95824        40.93272        11.23931
     2020.96098         5.48497        11.21570
     2020.96372        35.86421        10.85223
     2020.96646        18.65845        11.24717
     2020.96919        12.76870        11.56816
     2020.97193        25.11094        10.54540
     2020.97467        -9.44682        10.79244
     2020.97741       -12.19057        10.55013
     2020.98015        -9.04933        10.80660
     2020.98288       -12.60609        10.74524
     2020.98562        -9.52284        10.66499
     2020.98836       -15.85760        10.91045
     2020.99110       -21.48135        11.03475
     2020.99384       -10.02311        10.53754
     2021.00479        28.88286        11.44858
     2021.00752        44.42011        10.60520
     2021.01026        28.20035        10.79716
     2021.01300        -2.10041        10.76884
     2021.01848       -21.49592        11.08825
     2021.03490         2.59454        12.29668
     2021.03764        31.93378        10.34400
     2021.04038        33.71303        10.80503
     2021.04312        28.62127        10.33613
     2021.04585        31.60851        10.65869
     2021.04859        33.43476        10.41009
     2021.05133        34.62800        10.57530
     2021.05407        31.41424        10.95136
     2021.05681        30.36949        10.51866
     2021.05954        28.64673        10.04347
     2021.06228        27.74897        10.13473
     2021.06502        32.66122        10.21812
     2021.06776        18.99846        10.40222
     2021.07049        14.13170        10.53439
     2021.07323        18.26295        10.24802
     2021.07597         8.07719        10.55799
     2021.07871         8.28043        10.50607
     2021.08145         9.32268        10.42582
     2021.08418       -14.54208        10.56429
     2021.14715        13.66852        10.72793
     2021.14989        20.35776        10.38806
     2021.15263         8.88201        10.64925
     2021.15537        -2.55375        10.80817
     2021.15811        18.69249        10.60048
     2021.16084        20.64874        10.77356
     2021.16358        30.21798        10.77671
     2021.16632        38.72222        10.75153
     2021.16906        31.14947        10.51079
     2021.17180        23.20471        10.67286
     2021.17453         2.28495        11.64683
     2021.17727        35.15220        11.12759
     2021.18001        18.26844        10.95451
     2021.18275        13.13068        11.23616
     2021.18548        14.88493        10.41323
     2021.18822        27.73317        10.64768
     2021.19096        21.52041        10.27319
     2021.19370        29.31466        10.51079
     2021.19644        23.19990        10.50764
     2021.19917        19.55314        10.83020
     2021.20191        31.15839        10.43684
     2021.20465        27.21963        10.36603
     2021.20739        25.95788        10.51079
     2021.21013        27.61912        10.64768
     2021.21286        27.10236        11.02689
     2021.21560        31.28061        10.72163
     2021.21834        24.83585        10.35974
     2021.22108        23.39309        10.66499
     2021.22381        25.34934        10.56901
     2021.22655        15.43958        10.48876
     2021.22929        26.27082        10.53754
     2021.23203        33.30607        10.46673
     2021.23477        26.58131        10.39592
     2021.23750        40.81555        11.01745
     2021.24024        24.30380        10.60048
     2021.24298        22.05604        10.22127
     2021.24572        18.48228        10.51866
     2021.24846        24.65353        10.75940
     2021.25119        27.50877        10.39907
     2021.25393        23.11001        10.64925
     2021.25667        18.20926        10.77985
     2021.25941        20.77350        10.37547
     2021.26214        23.33074        10.43369
     2021.26488        33.10699        10.65083
     2021.26762        26.82923        10.87426
     2021.27036        26.57847        10.92304
     2021.27310         0.54872        10.72793
     2021.27583        18.63096        10.36446
     2021.27857        20.23720        10.58789
     2021.28131        17.05245        10.89944
     2021.28405        15.30369        10.60205
     2021.28679        18.46493        10.58789
     2021.28952        22.74518        10.94979
     2021.29226        23.51242        10.79244
     2021.29500        29.57666        10.64925
     2021.29774        26.57991        11.04577
     2021.30047        20.02615        10.64296
     2021.30321        26.47139        10.73107
     2021.30595        38.10364        11.19210
     2021.30869        48.39788        11.03790
     2021.31143        35.81812        10.83650
     2021.31416        40.55637        10.78457
     2021.31690        36.38261        10.66342
     2021.31964        30.81286        10.78929
     2021.32238        41.28610        10.99856
     2021.32512        28.16534        10.79401
     2021.32785        28.00559        10.80975
     2021.33059        32.50483        10.65712
     2021.33333        28.28507        10.77513
     2021.33607        29.93932        10.70118
     2021.33880        29.23856        10.70118
     2021.34154        29.93680        10.64768
     2021.34428        24.27805        10.91674
     2021.34702        25.25929        10.83650
     2021.34976        28.51653        10.72163
     2021.35249        35.69078        10.60362
     2021.35523        30.17002        10.74366
     2021.35797        18.18326        10.64453
     2021.36071        20.27451        10.80817
     2021.36344        18.16875        10.49348
     2021.36618        19.89299        10.64768
     2021.36892        21.11724        10.87898
     2021.37166        29.42748        10.85223
     2021.37440        25.12672        10.90888
     2021.37713        33.83297        10.70905
     2021.37987        22.76621        11.05678
     2021.38261        19.99145        11.59491
     2021.38535        25.56170        11.24403
     2021.38809        23.97394        11.10556
     2021.39082        24.84018        10.81762
     2021.39356        27.37343        10.72163
     2021.39630        27.39267        10.67286
     2021.39904        32.57591        10.79559
     2021.40177        39.17216        10.96395
     2021.40451        38.24340        11.02059
     2021.40725        20.36464        10.76254
     2021.40999        30.53289        10.72321
     2021.41273        37.03313        10.96237
     2021.41546        29.72137        10.84594
     2021.41820        29.42062        10.75310
     2021.42094        37.09086        10.98755
     2021.42368        22.96910        11.13546
     2021.42642        33.81035        10.69803
     2021.42915        45.32659        10.74052
     2021.43189        39.95284        10.77985
     2021.43463        28.78508        10.79087
     2021.43737        32.11632        11.05993
     2021.44010        39.04557        11.20154
     2021.44284        33.03881        10.93405
     2021.44558        51.25605        10.93091
     2021.44832        29.34130        11.22042
     2021.45106        29.11754        11.28651
     2021.45379        43.34178        11.26448
     2021.45653        32.07603        10.78929
     2021.45927        38.19427        10.68230
     2021.46201        32.14451        10.79087
     2021.46475        35.29976        10.72793
     2021.46748        21.45800        10.63824
     2021.47022        26.90724        10.81604
     2021.47296        36.54449        10.87741
     2021.47570        25.59173        10.85223
     2021.47843        21.62497        10.71691
     2021.48117        24.26922        10.67286
     2021.48391        29.64546        10.73107
     2021.48665        33.63770        10.83020
     2021.48939        43.54695        10.63195
     2021.49212        22.14819        10.81919
     2021.49486        26.06243        10.93720
     2021.49760        38.77268        11.12287
     2021.50034        39.68592        11.30539
     2021.50308        28.84616        11.10084
     2021.50581        16.82041        11.21885
     2021.50855        39.44165        11.20626
     2021.51129        44.70489        11.45172
     2021.51403        40.50114        11.11500
     2021.51676        38.33638        10.79244
     2021.51950        34.31562        11.10399
     2021.52224        37.64587        11.19525
     2021.52498        39.32711        10.93248
     2021.52772        40.97435        10.80975
     2021.53045        42.12160        10.99384
     2021.53319        40.96784        10.97654
     2021.53593        33.33308        10.99227
     2021.53867        51.11533        11.73023
     2021.54141        41.87057        11.48162
     2021.54414        33.08982        10.88685
     2021.54688        41.39306        10.92776
     2021.54962        30.58430        10.80345
     2021.55236        45.11855        10.97654
     2021.55509        41.86579        11.18266
     2021.55783        47.02903        11.13860
     2021.56057        45.79328        10.82391
     2021.56331        40.34752        10.83807
     2021.56605        31.88876        11.11343
     2021.56878        39.22201        10.79873
     2021.57152        29.43125        10.90573
     2021.57426        38.74049        10.88370
     2021.57700        45.28974        11.51781
     2021.57974        40.70298        10.90101
     2021.58247        29.97722        11.05364
     2021.58521        33.56247        11.16850
     2021.58795        32.86471        10.70747
     2021.59069        33.46795        10.89629
     2021.59342        25.24920        11.01587
     2021.59616        35.40644        11.11185
     2021.59890        41.27368        11.18581
     2021.60164        43.49693        10.90258
     2021.60438        45.17617        10.68387
     2021.60711        43.02641        10.57215
     2021.60985        40.50966        10.95923
     2021.61259        45.27690        10.84279
     2021.61533        38.50014        11.00171
     2021.61807        38.61239        10.82234
     2021.62080        36.44163        10.82548
     2021.62354        54.60287        10.85853
     2021.62628        48.60012        11.31798
     2021.62902        58.30336        10.91517
     2021.63175        45.96460        10.80188
     2021.63449        40.83885        11.26133
     2021.63723        43.76509        11.48005
     2021.63997        55.60433        11.53512
     2021.64271        51.04958        11.45330
     2021.64544        48.56482        10.76884
     2021.64818        47.45306        10.91202
     2021.65092        42.41731        10.95923
     2021.65366        38.86155        10.94664
     2021.65639        35.74180        10.86167
     2021.65913        54.94304        10.65869
     2021.66187        49.04428        10.74209
     2021.66461        46.74153        10.88055
     2021.66735        42.31177        10.98440
     2021.67008        35.90501        11.12287
     2021.67282        43.20426        11.39351
     2021.67556        52.74150        11.25661
     2021.67830        46.59874        10.96867
     2021.68104        38.30599        11.06150
     2021.68377        41.46623        11.00486
     2021.68651        50.45947        11.03161
     2021.68925        47.29672        10.72950
     2021.69199        41.99396        10.85381
     2021.69472        47.78220        10.99699
     2021.69746        44.19945        11.23773
     2021.70020        41.21669        10.91202
     2021.70294        43.74093        11.03633
     2021.70568        42.86918        11.02846
     2021.70841        50.97642        10.91360
     2021.71115        58.63066        10.92146
     2021.71389        48.34291        11.36046
     2021.71663        41.96015        10.82391
     2021.71937        41.83639        10.69174
     2021.72210        42.08164        10.83178
     2021.72484        40.10788        10.91045
     2021.72758        43.49512        10.77356
     2021.73032        27.61437        11.60907
     2021.73305        35.11061        11.11028
     2021.73579        47.21685        11.35417
     2021.73853        55.01110        11.34473
     2021.74127        47.08034        11.02217
     2021.74401        44.56458        11.26448
     2021.74674        58.35483        11.69089
     2021.74948        35.73507        11.07094
     2021.75222        44.69131        10.94349
     2021.75496        46.84056        11.45330
     2021.75770        38.34180        10.86954
     2021.76043        52.67905        11.60907
     2021.76317        35.98429        10.94192
     2021.76591        35.38453        10.74996
     2021.76865        45.60578        10.65397
     2021.77138        46.86302        10.91674
     2021.77412        50.44726        11.55557
     2021.77686        44.21251        10.92776
     2021.77960        42.10575        11.19053
     2021.78234        46.97099        11.20312
     2021.78507        60.53624        10.91674
     2021.78781        43.78648        11.01273
     2021.79055        45.90272        11.06780
     2021.79329        53.14697        11.42655
     2021.79603        49.79321        11.22986
     2021.79876        48.83345        10.68544
     2021.80150        60.06270        10.85695
     2021.80424        42.91094        11.28494
     2021.80698        45.83118        11.05049
     2021.80971        52.08443        10.95923
     2021.81245        54.60967        11.31798
     2021.81519        65.81391        11.20941
     2021.81793        52.30316        11.07881
     2021.82067        38.42340        11.21413
     2021.82340        38.41764        11.18581
     2021.82614        47.45589        11.26133
     2021.82888        42.85813        10.67128
     2021.83162        48.03937        10.62408
     2021.83436        47.96462        10.45257
     2021.83709        50.62486        10.73422
     2021.83983        38.84110        10.92933
     2021.84257        43.25935        11.09140
     2021.84531        40.29659        11.09769
     2021.84804        43.56983        10.80345
     2021.85078        -2.91192        11.31011
     2021.85626         4.09356        11.20312
     2021.85900       -16.01619        11.69561
     2021.86173        -9.70295        11.44858
     2021.86447         0.24229        12.54529
     2021.86721        51.48554        11.48162
     2021.86995       -17.74422        12.32185
     2021.87269        55.31503        11.42025
     2021.87542        36.50527        10.99070
     2021.87816        36.23151        10.41323
     2021.88090        27.54976        10.67128
     2021.88364         7.97500        10.73265
     2021.88637        12.75024        10.96395
     2021.88911        18.14649        10.91360
     2021.89185        35.92973        10.95293
     2021.89459        35.85197        11.34788
     2021.89733        41.28822        11.08983
     2021.90006         7.50546        11.18738
     2021.90554        33.45895        11.23931
     2021.91102        40.44443        10.92933
     2021.91375        45.74868        11.10713
     2021.91923        37.41816        11.12130
     2021.92197        27.21341        10.73894
     2021.92470        26.33165        10.56901
     2021.92744        26.63989        10.45257
     2021.93018         5.85414        10.43526
     2021.93292        -2.44062        10.95293
     2021.93566         0.57562        11.50050
     2021.93839         7.11487        10.66814
     2021.94113        10.85411        10.87426
     2021.94387        -1.50965        10.70590
     2022.01505       -22.60832        10.99856
     2022.02600        17.65866        11.00328
     2022.02874        31.15090        11.24875
     2022.03148         3.76214        10.95765
     2022.03422         7.55839        10.78143
     2022.03696        22.84763        10.77985
     2022.03969        20.72087        11.07724
     2022.04243        24.28412        11.18423
     2022.04517        22.12436        11.15906
     2022.04791        26.64060        11.00171
     2022.05065        21.30385        10.79401
     2022.05338        37.97009        11.21570
     2022.05612        21.39433        11.05521
     2022.05886         9.49458        10.90730
     2022.06160        19.98282        10.92618
     2022.06433        21.25506        10.72321
     2022.06707        20.55331        10.73737
     2022.06981        30.03855        10.79401
     2022.07255        22.21479        10.67600
     2022.07529        22.07404        10.62565
     2022.07802        24.82528        10.82234
     2022.08076         8.73652        10.82076
     2022.08350       -14.80123        11.60435
     2022.08624        24.72501        10.83807
     2022.08898        26.75625        10.58317
     2022.09171        26.34250        10.89157
     2022.09445        11.59174        11.27864
     2022.09719        -2.77001        11.36204
     2022.09993        17.00223        11.42970
     2022.10266        21.91447        10.97182
     2022.10540        27.81272        11.06622
     2022.10814        27.06496        11.14962
     2022.11088        34.63820        11.17794
     2022.11362        25.78045        10.86482
     2022.11635        27.46669        10.65083
     2022.11909        26.67493        10.74366
     2022.12183        26.13318        10.69803
     2022.12457        18.55542        10.85381
     2022.12731        24.75966        10.61621
     2022.13004        18.64091        10.62093
     2022.13278        19.67515        10.63667
     2022.13552        21.73039        10.91045
     2022.13826        25.30764        10.88370
     2022.14099        22.55488        10.70433
     2022.14373        12.85112        10.37075
     2022.14647        29.97137        10.18823
     2022.14921        20.72161        10.67915
     2022.15195        18.93185        10.94507
     2022.15468        20.00010        10.39592
     2022.15742       -21.06366        11.55085
     2022.16016        32.49058        11.02374
     2022.16290        36.18883        11.40767
     2022.16564        14.45307        10.86482
     2022.16837        29.72931        10.77828
     2022.17111        26.75856        10.98126
     2022.17385        24.35980        10.83178
     2022.17659        25.08904        10.48719
     2022.17932        21.54329        10.73737
     2022.18206        23.28353        10.58474
     2022.18480        20.02377        10.51079
     2022.18754        13.62902        10.50607
     2022.19028        19.55726        10.74209
     2022.19301        18.90950        11.14962
     2022.19575        36.06675        11.18266
     2022.19849        28.73799        11.03475
     2022.20123        21.13223        11.34788
     2022.20397        31.71948        11.02059
     2022.20670        27.80472        11.18266
     2022.20944        44.68997        11.43442
     2022.21218        34.55321        11.05206
     2022.21492        20.51345        10.88370
     2022.21765        10.03670        11.04262
     2022.22039        24.21494        11.07094
     2022.22313        25.58118        11.10084
     2022.22587        16.14143        10.80503
     2022.22861        24.04867        10.81762
     2022.23134        25.06591        10.80975
     2022.23408        29.83516        10.86797
     2022.23682        27.11340        11.24245
     2022.23956        12.91364        10.71849
     2022.24230        20.95689        10.95136
     2022.24503        30.16813        10.68702
     2022.24777        27.70537        10.88685
     2022.25051        19.99562        10.99070
     2022.25325        15.65286        10.88685
     2022.25598        -3.85990        11.43284
     2022.25872        27.28235        11.27078
     2022.26146        23.28259        10.85066
     2022.26420        25.45983        10.87898
     2022.26694        14.75008        11.16221
     2022.26967        19.18432        10.49191
     2022.27241        30.81856        10.66814
     2022.27515        25.98581        10.66656
     2022.27789        22.93805        10.61464
     2022.28062        22.70729        10.48404
     2022.28336        16.42754        10.53911
     2022.28610        23.01078        10.80975
     2022.28884        20.55802        10.82548
     2022.29158        19.87327        10.55799
     2022.29431        16.75451        10.56743
     2022.29705         8.73575        11.33529
     2022.29979        32.15500        10.82863
     2022.30253        23.92924        10.72163
     2022.30527        24.47548        10.75940
     2022.30800        23.60273        10.60834
     2022.31074        13.94797        10.55013
     2022.31348        24.54322        10.78300
     2022.31622        20.18546        10.64611
     2022.31895         5.77270        10.66814
     2022.32169        18.40195        10.70118
     2022.32443        21.09919        10.57215
     2022.32717         8.96843        10.51866
     2022.32991        25.05668        10.49191
     2022.33264        15.03592        10.83020
     2022.33538        21.53416        11.03633
     2022.33812        24.60241        11.13703
     2022.34086        27.78465        10.90101
     2022.34360        29.89589        10.94349
     2022.34633        27.10214        10.58474
     2022.34907        23.16138        10.63037
     2022.35181        23.89762        10.83964
     2022.35455        27.52987        10.85223
     2022.35728        26.60911        10.50921
     2022.36002        25.70735        10.89786
     2022.36276        22.09760        11.12287
     2022.36550        20.99984        10.81447
     2022.36824        17.97108        10.82234
     2022.37097        16.21633        11.06622
     2022.37371        13.90657        10.59261
     2022.37645        22.22181        11.01745
     2022.37919        15.42606        11.30854
     2022.38193        16.63630        11.14490
     2022.38466         8.31154        10.77198
     2022.38740         1.73779        10.62565
     2022.39014        18.48903        10.80817
     2022.39288        17.88627        10.59418
     2022.39561        22.32152        10.84751
     2022.39835        19.79976        11.09140
     2022.40109        16.03500        11.22357
     2022.40383        26.59125        10.66499
     2022.40657        16.12149        10.87741
     2022.40930        13.80373        11.07252
     2022.41204        21.46498        10.99384
     2022.41478        27.79522        10.84122
     2022.41752        26.06046        10.98912
     2022.42026        19.69271        10.95923
     2022.42299        25.71895        10.77513
     2022.42573        25.65120        11.09140
     2022.42847        27.19144        11.19525
     2022.43121        26.73768        11.11815
     2022.43394        29.74393        11.34315
     2022.43668        19.24017        10.91045
     2022.43942        25.53441        11.18895
     2022.44216        24.24566        10.97654
     2022.44490        29.79390        11.03161
     2022.44763        30.83014        10.58631
     2022.45037        28.36639        10.75940
     2022.45311        24.96363        10.69803
     2022.45585        25.69887        10.87426
     2022.45859         6.01112        10.84279
     2022.46132        18.72036        10.87426
     2022.46406        24.57060        10.64453
     2022.46680        15.00285        10.70118
     2022.46954        28.99009        10.87111
     2022.47227         1.42933        10.78772
     2022.47501        18.45558        10.65555
     2022.47775        18.72682        11.04577
     2022.48049        22.66006        10.77513
     2022.48323        31.05731        10.59418
     2022.48596        32.51755        10.88527
     2022.48870        14.55979        11.10871
     2022.49144        22.35004        10.85538
     2022.49418        18.83128        11.00328
     2022.49692        17.72952        10.59104
     2022.49965        21.75177        11.25032
     2022.50239         6.57201        10.94979
     2022.50513        25.02825        11.73495
     2022.50787        36.10150        11.48162
     2022.51060         8.95674        11.03318
     2022.51334        24.85998        11.04420
     2022.51608        14.47323        10.96237
     2022.51882        15.64447        10.94507
     2022.52156        21.75871        11.09769
     2022.52429        13.84396        10.83807
     2022.52703        12.19220        10.88999
     2022.52977        31.03144        10.99070
     2022.53251        16.80469        10.88055
     2022.53525        21.80593        11.22200
     2022.53798        20.84618        11.03947
     2022.54072        20.08742        10.89944
     2022.54346        26.23966        11.09769
     2022.54620         7.33791        11.01902
     2022.54893        31.69015        10.96395
     2022.55167        37.59639        11.42025
     2022.55441        18.49064        10.82863
     2022.55715        35.12688        11.25661
     2022.55989        22.35012        11.17165
     2022.56262        20.91337        11.06937
     2022.56536        13.45961        11.18738
     2022.56810        20.19285        10.86325
     2022.57084        25.58610        10.78615
     2022.57357        42.50434        11.35102
     2022.57631        22.15058        11.06622
     2022.57905        21.27183        11.22986
     2022.58179        31.33207        11.17322
     2022.58453        39.82231        11.53669
     2022.58726        26.81656        11.38406
     2022.59000        40.26380        11.54928
     2022.59274        24.81204        10.92776
     2022.59548        19.48229        10.84122
     2022.59822        19.64753        10.93248
     2022.60095        26.19777        10.96552
     2022.60369        24.65702        11.11972
     2022.60643        34.33126        11.08511
     2022.60917        26.42750        11.18423
     2022.61190        43.69575        11.34788
     2022.61464        39.28899        11.00328
     2022.61738        41.29123        10.93563
     2022.62012        32.72548        10.92933
     2022.62286        41.61872        11.02374
     2022.62559        38.31896        10.85381
     2022.62833        34.25021        10.75153
     2022.63107        43.48745        11.14018
     2022.63381        42.19469        10.97811
     2022.63655        39.37494        10.98126
     2022.63928        46.44318        10.84436
     2022.64202        43.16342        11.64841
     2022.64476        40.26067        11.23616
     2022.64750        42.76491        10.85381
     2022.65023        46.77016        10.77671
     2022.65297        46.51640        10.84594
     2022.65571        57.42364        10.97182
     2022.65845        43.85989        11.02846
     2022.66119        37.94013        10.67758
     2022.66392        38.75537        10.74366
     2022.66666        30.54862        10.93091
     2022.66940        42.14686        10.78300
     2022.67214        40.93310        10.85695
     2022.67488        43.38035        11.20469
     2022.67761        39.47259        10.99384
     2022.68035        38.36783        10.53596
     2022.68309        45.31708        11.19525
     2022.68583        34.76532        11.30854
     2022.68856        41.07856        10.89944
     2022.69130        49.27781        11.06937
     2022.69404        51.27805        11.63739
     2022.69678        34.22129        11.21413
     2022.69952        32.78554        11.02374
     2022.70225        45.75478        11.59176
     2022.70499        50.83502        11.33843
     2022.70773        51.01127        11.66886
     2022.71047        44.42251        10.87111
     2022.71321        41.16075        10.86797
     2022.71594        46.64000        10.69016
     2022.71868        41.89024        10.87898
     2022.72142        48.25548        10.76884
     2022.72416        42.48573        11.19840
     2022.72689        53.34097        11.33371
     2022.72963        49.28021        10.81289
     2022.73237        44.78946        10.75940
     2022.73511        43.15270        11.08038
     2022.73785        47.27594        10.79244
     2022.74058        50.25419        11.40609
     2022.74332        51.73143        11.43284
     2022.74606        48.13767        11.02374
     2022.74880        43.60492        10.82548
